'Elapsed time','MLII','V5'
'hh:mm:ss.mmm','mV','mV'
'0:00.000',4.725,4.775
'0:00.004',4.735,4.745
'0:00.008',4.725,4.735
'0:00.012',4.715,4.745
'0:00.016',4.720,4.735
'0:00.020',4.705,4.725
'0:00.024',4.700,4.710
'0:00.028',4.690,4.715
'0:00.032',4.710,4.710
'0:00.036',4.710,4.710
'0:00.040',4.695,4.695
'0:00.044',4.690,4.690
'0:00.048',4.710,4.710
'0:00.052',4.695,4.705
'0:00.056',4.705,4.685
'0:00.060',4.700,4.705
'0:00.064',4.710,4.715
'0:00.068',4.710,4.720
'0:00.072',4.700,4.720
'0:00.076',4.705,4.745
'0:00.080',4.720,4.785
'0:00.084',4.735,4.790
'0:00.088',4.740,4.790
'0:00.092',4.730,4.805
'0:00.096',4.755,4.825
'0:00.100',4.765,4.835
'0:00.104',4.780,4.830
'0:00.108',4.780,4.840
'0:00.112',4.780,4.850
'0:00.116',4.805,4.860
'0:00.120',4.810,4.850
'0:00.124',4.800,4.850
'0:00.128',4.805,4.870
'0:00.132',4.820,4.875
'0:00.136',4.820,4.860
'0:00.140',4.795,4.850
'0:00.144',4.795,4.855
'0:00.148',4.800,4.855
'0:00.152',4.795,4.850
'0:00.156',4.800,4.835
'0:00.160',4.790,4.860
'0:00.164',4.810,4.865
'0:00.168',4.805,4.875
'0:00.172',4.790,4.850
'0:00.176',4.800,4.850
'0:00.180',4.800,4.855
'0:00.184',4.800,4.855
'0:00.188',4.785,4.840
'0:00.192',4.780,4.845
'0:00.196',4.800,4.855
'0:00.200',4.805,4.860
'0:00.204',4.795,4.830
'0:00.208',4.775,4.840
'0:00.212',4.780,4.855
'0:00.216',4.785,4.855
'0:00.220',4.780,4.840
'0:00.224',4.770,4.820
'0:00.228',4.780,4.825
'0:00.232',4.780,4.845
'0:00.236',4.770,4.835
'0:00.240',4.755,4.810
'0:00.244',4.765,4.825
'0:00.248',4.780,4.825
'0:00.252',4.775,4.810
'0:00.256',4.750,4.815
'0:00.260',4.755,4.805
'0:00.264',4.750,4.815
'0:00.268',4.760,4.820
'0:00.272',4.745,4.815
'0:00.276',4.740,4.810
'0:00.280',4.760,4.820
'0:00.284',4.765,4.810
'0:00.288',4.740,4.805
'0:00.292',4.740,4.810
'0:00.296',4.750,4.810
'0:00.300',4.760,4.815
'0:00.304',4.760,4.815
'0:00.308',4.745,4.805
'0:00.312',4.750,4.815
'0:00.316',4.755,4.815
'0:00.320',4.755,4.805
'0:00.324',4.740,4.805
'0:00.328',4.740,4.825
'0:00.332',4.765,4.820
'0:00.336',4.760,4.820
'0:00.340',4.760,4.795
'0:00.344',4.750,4.810
'0:00.348',4.775,4.825
'0:00.352',4.800,4.800
'0:00.356',4.780,4.795
'0:00.360',4.780,4.810
'0:00.364',4.815,4.820
'0:00.368',4.815,4.810
'0:00.372',4.825,4.800
'0:00.376',4.815,4.815
'0:00.380',4.830,4.815
'0:00.384',4.835,4.830
'0:00.388',4.840,4.820
'0:00.392',4.835,4.825
'0:00.396',4.860,4.845
'0:00.400',4.870,4.855
'0:00.404',4.870,4.855
'0:00.408',4.865,4.845
'0:00.412',4.875,4.855
'0:00.416',4.880,4.860
'0:00.420',4.860,4.855
'0:00.424',4.850,4.855
'0:00.428',4.875,4.890
'0:00.432',4.875,4.905
'0:00.436',4.885,4.890
'0:00.440',4.885,4.850
'0:00.444',4.860,4.845
'0:00.448',4.820,4.865
'0:00.452',4.800,4.850
'0:00.456',4.785,4.825
'0:00.460',4.770,4.830
'0:00.464',4.755,4.830
'0:00.468',4.745,4.825
'0:00.472',4.735,4.815
'0:00.476',4.715,4.810
'0:00.480',4.725,4.820
'0:00.484',4.725,4.835
'0:00.488',4.720,4.815
'0:00.492',4.715,4.825
'0:00.496',4.720,4.820
'0:00.500',4.720,4.830
'0:00.504',4.720,4.810
'0:00.508',4.710,4.800
'0:00.512',4.730,4.830
'0:00.516',4.730,4.840
'0:00.520',4.715,4.820
'0:00.524',4.710,4.800
'0:00.528',4.705,4.780
'0:00.532',4.685,4.765
'0:00.536',4.630,4.750
'0:00.540',4.595,4.700
'0:00.544',4.550,4.740
'0:00.548',4.515,4.870
'0:00.552',4.590,4.995
'0:00.556',4.730,5.065
'0:00.560',4.955,5.190
'0:00.564',5.300,5.350
'0:00.568',5.690,5.465
'0:00.572',5.910,5.320
'0:00.576',5.820,4.905
'0:00.580',5.390,4.650
'0:00.584',4.865,4.660
'0:00.588',4.580,4.725
'0:00.592',4.535,4.755
'0:00.596',4.620,4.785
'0:00.600',4.650,4.795
'0:00.604',4.670,4.775
'0:00.608',4.660,4.760
'0:00.612',4.655,4.785
'0:00.616',4.660,4.785
'0:00.620',4.665,4.780
'0:00.624',4.660,4.770
'0:00.628',4.655,4.785
'0:00.632',4.640,4.795
'0:00.636',4.650,4.785
'0:00.640',4.640,4.770
'0:00.644',4.645,4.780
'0:00.648',4.655,4.795
'0:00.652',4.670,4.785
'0:00.656',4.660,4.775
'0:00.660',4.660,4.785
'0:00.664',4.665,4.800
'0:00.668',4.660,4.785
'0:00.672',4.645,4.775
'0:00.676',4.630,4.780
'0:00.680',4.650,4.800
'0:00.684',4.665,4.785
'0:00.688',4.660,4.775
'0:00.692',4.635,4.775
'0:00.696',4.640,4.780
'0:00.700',4.645,4.785
'0:00.704',4.645,4.785
'0:00.708',4.635,4.790
'0:00.712',4.645,4.805
'0:00.716',4.660,4.805
'0:00.720',4.655,4.795
'0:00.724',4.635,4.790
'0:00.728',4.650,4.795
'0:00.732',4.655,4.790
'0:00.736',4.650,4.795
'0:00.740',4.650,4.790
'0:00.744',4.655,4.790
'0:00.748',4.665,4.810
'0:00.752',4.665,4.795
'0:00.756',4.640,4.780
'0:00.760',4.645,4.785
'0:00.764',4.655,4.800
'0:00.768',4.670,4.795
'0:00.772',4.665,4.785
'0:00.776',4.655,4.785
'0:00.780',4.655,4.785
'0:00.784',4.655,4.770
'0:00.788',4.645,4.750
'0:00.792',4.640,4.755
'0:00.796',4.650,4.770
'0:00.800',4.655,4.775
'0:00.804',4.655,4.745
'0:00.808',4.645,4.735
'0:00.812',4.655,4.745
'0:00.816',4.655,4.745
'0:00.820',4.645,4.715
'0:00.824',4.630,4.715
'0:00.828',4.620,4.695
'0:00.832',4.625,4.710
'0:00.836',4.620,4.685
'0:00.840',4.595,4.670
'0:00.844',4.585,4.685
'0:00.848',4.615,4.695
'0:00.852',4.605,4.690
'0:00.856',4.595,4.685
'0:00.860',4.605,4.700
'0:00.864',4.620,4.710
'0:00.868',4.625,4.725
'0:00.872',4.635,4.735
'0:00.876',4.640,4.755
'0:00.880',4.665,4.780
'0:00.884',4.695,4.795
'0:00.888',4.695,4.795
'0:00.892',4.695,4.810
'0:00.896',4.720,4.835
'0:00.900',4.730,4.850
'0:00.904',4.740,4.835
'0:00.908',4.730,4.825
'0:00.912',4.740,4.840
'0:00.916',4.755,4.850
'0:00.920',4.750,4.840
'0:00.924',4.750,4.835
'0:00.928',4.765,4.845
'0:00.932',4.775,4.855
'0:00.936',4.760,4.840
'0:00.940',4.765,4.835
'0:00.944',4.765,4.845
'0:00.948',4.775,4.855
'0:00.952',4.770,4.850
'0:00.956',4.770,4.840
'0:00.960',4.755,4.850
'0:00.964',4.770,4.860
'0:00.968',4.760,4.850
'0:00.972',4.755,4.835
'0:00.976',4.740,4.835
'0:00.980',4.750,4.860
'0:00.984',4.755,4.855
'0:00.988',4.750,4.845
'0:00.992',4.735,4.830
'0:00.996',4.755,4.850
'0:01.000',4.750,4.860
'0:01.004',4.760,4.845
'0:01.008',4.740,4.835
'0:01.012',4.745,4.845
'0:01.016',4.755,4.850
'0:01.020',4.755,4.830
'0:01.024',4.740,4.815
'0:01.028',4.745,4.825
'0:01.032',4.755,4.835
'0:01.036',4.755,4.835
'0:01.040',4.750,4.835
'0:01.044',4.745,4.845
'0:01.048',4.745,4.850
'0:01.052',4.745,4.835
'0:01.056',4.735,4.820
'0:01.060',4.730,4.825
'0:01.064',4.730,4.845
'0:01.068',4.735,4.835
'0:01.072',4.735,4.830
'0:01.076',4.730,4.825
'0:01.080',4.740,4.835
'0:01.084',4.760,4.845
'0:01.088',4.745,4.825
'0:01.092',4.735,4.815
'0:01.096',4.750,4.825
'0:01.100',4.755,4.825
'0:01.104',4.745,4.820
'0:01.108',4.745,4.815
'0:01.112',4.745,4.830
'0:01.116',4.750,4.835
'0:01.120',4.750,4.825
'0:01.124',4.730,4.820
'0:01.128',4.740,4.830
'0:01.132',4.745,4.845
'0:01.136',4.745,4.835
'0:01.140',4.735,4.830
'0:01.144',4.745,4.830
'0:01.148',4.760,4.850
'0:01.152',4.775,4.835
'0:01.156',4.770,4.835
'0:01.160',4.780,4.830
'0:01.164',4.805,4.840
'0:01.168',4.805,4.845
'0:01.172',4.810,4.830
'0:01.176',4.820,4.845
'0:01.180',4.840,4.855
'0:01.184',4.850,4.855
'0:01.188',4.855,4.855
'0:01.192',4.855,4.865
'0:01.196',4.875,4.885
'0:01.200',4.870,4.890
'0:01.204',4.880,4.870
'0:01.208',4.870,4.875
'0:01.212',4.855,4.895
'0:01.216',4.870,4.900
'0:01.220',4.870,4.900
'0:01.224',4.865,4.890
'0:01.228',4.865,4.920
'0:01.232',4.890,4.920
'0:01.236',4.915,4.900
'0:01.240',4.890,4.880
'0:01.244',4.845,4.870
'0:01.248',4.830,4.880
'0:01.252',4.835,4.870
'0:01.256',4.815,4.865
'0:01.260',4.795,4.875
'0:01.264',4.790,4.880
'0:01.268',4.780,4.875
'0:01.272',4.750,4.845
'0:01.276',4.735,4.845
'0:01.280',4.740,4.860
'0:01.284',4.750,4.870
'0:01.288',4.735,4.845
'0:01.292',4.715,4.840
'0:01.296',4.730,4.850
'0:01.300',4.725,4.855
'0:01.304',4.740,4.850
'0:01.308',4.725,4.855
'0:01.312',4.720,4.860
'0:01.316',4.730,4.855
'0:01.320',4.735,4.850
'0:01.324',4.720,4.855
'0:01.328',4.735,4.870
'0:01.332',4.740,4.855
'0:01.336',4.735,4.810
'0:01.340',4.690,4.775
'0:01.344',4.645,4.760
'0:01.348',4.630,4.745
'0:01.352',4.585,4.805
'0:01.356',4.535,4.935
'0:01.360',4.620,5.065
'0:01.364',4.795,5.155
'0:01.368',5.005,5.270
'0:01.372',5.310,5.380
'0:01.376',5.680,5.520
'0:01.380',5.935,5.640
'0:01.384',6.065,5.630
'0:01.388',6.095,5.470
'0:01.392',5.930,5.125
'0:01.396',5.605,4.780
'0:01.400',5.495,4.700
'0:01.404',4.775,4.710
'0:01.408',4.555,4.770
'0:01.412',4.560,4.805
'0:01.416',4.655,4.825
'0:01.420',4.695,4.810
'0:01.424',4.690,4.810
'0:01.428',4.685,4.825
'0:01.432',4.695,4.830
'0:01.436',4.695,4.825
'0:01.440',4.670,4.815
'0:01.444',4.665,4.820
'0:01.448',4.690,4.845
'0:01.452',4.680,4.825
'0:01.456',4.680,4.815
'0:01.460',4.665,4.810
'0:01.464',4.685,4.840
'0:01.468',4.685,4.825
'0:01.472',4.675,4.815
'0:01.476',4.670,4.820
'0:01.480',4.680,4.830
'0:01.484',4.690,4.830
'0:01.488',4.680,4.825
'0:01.492',4.675,4.820
'0:01.496',4.680,4.840
'0:01.500',4.685,4.840
'0:01.504',4.685,4.825
'0:01.508',4.680,4.825
'0:01.512',4.685,4.835
'0:01.516',4.695,4.845
'0:01.520',4.685,4.845
'0:01.524',4.680,4.830
'0:01.528',4.685,4.830
'0:01.532',4.695,4.835
'0:01.536',4.690,4.835
'0:01.540',4.685,4.825
'0:01.544',4.690,4.830
'0:01.548',4.690,4.835
'0:01.552',4.695,4.830
'0:01.556',4.695,4.815
'0:01.560',4.680,4.825
'0:01.564',4.690,4.850
'0:01.568',4.700,4.830
'0:01.572',4.695,4.805
'0:01.576',4.690,4.805
'0:01.580',4.695,4.810
'0:01.584',4.695,4.810
'0:01.588',4.685,4.795
'0:01.592',4.675,4.790
'0:01.596',4.685,4.785
'0:01.600',4.695,4.790
'0:01.604',4.690,4.765
'0:01.608',4.685,4.750
'0:01.612',4.685,4.750
'0:01.616',4.690,4.745
'0:01.620',4.675,4.730
'0:01.624',4.670,4.710
'0:01.628',4.670,4.720
'0:01.632',4.670,4.725
'0:01.636',4.675,4.715
'0:01.640',4.665,4.700
'0:01.644',4.665,4.715
'0:01.648',4.670,4.735
'0:01.652',4.670,4.725
'0:01.656',4.660,4.735
'0:01.660',4.665,4.750
'0:01.664',4.685,4.775
'0:01.668',4.700,4.795
'0:01.672',4.715,4.805
'0:01.676',4.725,4.820
'0:01.680',4.745,4.850
'0:01.684',4.770,4.855
'0:01.688',4.770,4.845
'0:01.692',4.775,4.850
'0:01.696',4.785,4.870
'0:01.700',4.795,4.875
'0:01.704',4.800,4.880
'0:01.708',4.800,4.885
'0:01.712',4.810,4.900
'0:01.716',4.815,4.905
'0:01.720',4.820,4.885
'0:01.724',4.815,4.885
'0:01.728',4.810,4.905
'0:01.732',4.825,4.910
'0:01.736',4.830,4.905
'0:01.740',4.825,4.890
'0:01.744',4.815,4.885
'0:01.748',4.815,4.905
'0:01.752',4.825,4.900
'0:01.756',4.820,4.885
'0:01.760',4.805,4.885
'0:01.764',4.830,4.900
'0:01.768',4.820,4.890
'0:01.772',4.810,4.890
'0:01.776',4.815,4.885
'0:01.780',4.825,4.895
'0:01.784',4.835,4.890
'0:01.788',4.825,4.880
'0:01.792',4.820,4.870
'0:01.796',4.815,4.890
'0:01.800',4.815,4.900
'0:01.804',4.825,4.875
'0:01.808',4.800,4.865
'0:01.812',4.795,4.875
'0:01.816',4.805,4.880
'0:01.820',4.785,4.880
'0:01.824',4.775,4.870
'0:01.828',4.785,4.880
'0:01.832',4.795,4.885
'0:01.836',4.795,4.875
'0:01.840',4.780,4.860
'0:01.844',4.775,4.875
'0:01.848',4.790,4.880
'0:01.852',4.790,4.865
'0:01.856',4.780,4.855
'0:01.860',4.770,4.870
'0:01.864',4.785,4.885
'0:01.868',4.795,4.875
'0:01.872',4.775,4.860
'0:01.876',4.770,4.860
'0:01.880',4.775,4.870
'0:01.884',4.780,4.870
'0:01.888',4.770,4.865
'0:01.892',4.770,4.860
'0:01.896',4.775,4.875
'0:01.900',4.780,4.870
'0:01.904',4.795,4.870
'0:01.908',4.775,4.865
'0:01.912',4.785,4.875
'0:01.916',4.795,4.870
'0:01.920',4.810,4.865
'0:01.924',4.810,4.860
'0:01.928',4.825,4.875
'0:01.932',4.835,4.885
'0:01.936',4.845,4.880
'0:01.940',4.855,4.875
'0:01.944',4.860,4.885
'0:01.948',4.865,4.900
'0:01.952',4.885,4.890
'0:01.956',4.880,4.890
'0:01.960',4.890,4.900
'0:01.964',4.905,4.915
'0:01.968',4.905,4.910
'0:01.972',4.905,4.910
'0:01.976',4.880,4.925
'0:01.980',4.900,4.955
'0:01.984',4.915,4.945
'0:01.988',4.910,4.960
'0:01.992',4.910,4.935
'0:01.996',4.935,4.940
'0:02.000',4.945,4.945
'0:02.004',4.890,4.925
'0:02.008',4.860,4.915
'0:02.012',4.840,4.920
'0:02.016',4.840,4.925
'0:02.020',4.810,4.905
'0:02.024',4.780,4.895
'0:02.028',4.775,4.910
'0:02.032',4.785,4.915
'0:02.036',4.780,4.910
'0:02.040',4.770,4.895
'0:02.044',4.770,4.910
'0:02.048',4.780,4.925
'0:02.052',4.785,4.910
'0:02.056',4.770,4.890
'0:02.060',4.765,4.890
'0:02.064',4.775,4.920
'0:02.068',4.775,4.910
'0:02.072',4.770,4.895
'0:02.076',4.765,4.890
'0:02.080',4.775,4.910
'0:02.084',4.780,4.910
'0:02.088',4.765,4.900
'0:02.092',4.760,4.895
'0:02.096',4.770,4.905
'0:02.100',4.765,4.895
'0:02.104',4.750,4.850
'0:02.108',4.700,4.805
'0:02.112',4.665,4.785
'0:02.116',4.640,4.775
'0:02.120',4.595,4.860
'0:02.124',4.560,5.025
'0:02.128',4.680,5.185
'0:02.132',4.880,5.315
'0:02.136',5.125,5.470
'0:02.140',5.495,5.605
'0:02.144',5.855,5.605
'0:02.148',5.985,5.265
'0:02.152',5.775,4.850
'0:02.156',5.265,4.745
'0:02.160',4.775,4.805
'0:02.164',4.575,4.840
'0:02.168',4.615,4.860
'0:02.172',4.690,4.860
'0:02.176',4.715,4.855
'0:02.180',4.725,4.865
'0:02.184',4.730,4.865
'0:02.188',4.725,4.855
'0:02.192',4.710,4.855
'0:02.196',4.725,4.865
'0:02.200',4.740,4.870
'0:02.204',4.735,4.845
'0:02.208',4.715,4.850
'0:02.212',4.715,4.865
'0:02.216',4.730,4.870
'0:02.220',4.715,4.855
'0:02.224',4.710,4.850
'0:02.228',4.715,4.860
'0:02.232',4.730,4.865
'0:02.236',4.735,4.860
'0:02.240',4.720,4.855
'0:02.244',4.720,4.865
'0:02.248',4.720,4.870
'0:02.252',4.725,4.865
'0:02.256',4.715,4.855
'0:02.260',4.715,4.870
'0:02.264',4.730,4.890
'0:02.268',4.740,4.875
'0:02.272',4.735,4.860
'0:02.276',4.725,4.870
'0:02.280',4.730,4.890
'0:02.284',4.740,4.870
'0:02.288',4.740,4.865
'0:02.292',4.725,4.850
'0:02.296',4.735,4.870
'0:02.300',4.745,4.875
'0:02.304',4.735,4.865
'0:02.308',4.725,4.855
'0:02.312',4.725,4.865
'0:02.316',4.735,4.870
'0:02.320',4.745,4.855
'0:02.324',4.725,4.850
'0:02.328',4.740,4.840
'0:02.332',4.745,4.845
'0:02.336',4.750,4.840
'0:02.340',4.740,4.820
'0:02.344',4.740,4.825
'0:02.348',4.750,4.835
'0:02.352',4.765,4.820
'0:02.356',4.750,4.810
'0:02.360',4.740,4.795
'0:02.364',4.745,4.820
'0:02.368',4.755,4.800
'0:02.372',4.745,4.780
'0:02.376',4.725,4.770
'0:02.380',4.730,4.770
'0:02.384',4.735,4.770
'0:02.388',4.730,4.770
'0:02.392',4.725,4.755
'0:02.396',4.725,4.785
'0:02.400',4.730,4.790
'0:02.404',4.745,4.790
'0:02.408',4.730,4.800
'0:02.412',4.730,4.835
'0:02.416',4.765,4.855
'0:02.420',4.770,4.865
'0:02.424',4.785,4.870
'0:02.428',4.805,4.895
'0:02.432',4.815,4.920
'0:02.436',4.825,4.920
'0:02.440',4.820,4.910
'0:02.444',4.820,4.920
'0:02.448',4.835,4.940
'0:02.452',4.840,4.950
'0:02.456',4.840,4.950
'0:02.460',4.835,4.940
'0:02.464',4.850,4.950
'0:02.468',4.855,4.950
'0:02.472',4.850,4.950
'0:02.476',4.845,4.950
'0:02.480',4.850,4.960
'0:02.484',4.865,4.960
'0:02.488',4.860,4.940
'0:02.492',4.830,4.925
'0:02.496',4.835,4.955
'0:02.500',4.845,4.955
'0:02.504',4.845,4.935
'0:02.508',4.840,4.930
'0:02.512',4.845,4.945
'0:02.516',4.850,4.950
'0:02.520',4.850,4.935
'0:02.524',4.835,4.935
'0:02.528',4.835,4.930
'0:02.532',4.835,4.935
'0:02.536',4.825,4.925
'0:02.540',4.820,4.915
'0:02.544',4.825,4.920
'0:02.548',4.830,4.935
'0:02.552',4.835,4.925
'0:02.556',4.825,4.915
'0:02.560',4.815,4.915
'0:02.564',4.820,4.935
'0:02.568',4.830,4.930
'0:02.572',4.820,4.905
'0:02.576',4.805,4.905
'0:02.580',4.800,4.915
'0:02.584',4.815,4.920
'0:02.588',4.805,4.905
'0:02.592',4.795,4.890
'0:02.596',4.800,4.910
'0:02.600',4.810,4.915
'0:02.604',4.800,4.910
'0:02.608',4.790,4.900
'0:02.612',4.800,4.910
'0:02.616',4.810,4.915
'0:02.620',4.815,4.895
'0:02.624',4.800,4.895
'0:02.628',4.805,4.905
'0:02.632',4.805,4.920
'0:02.636',4.810,4.915
'0:02.640',4.805,4.895
'0:02.644',4.805,4.900
'0:02.648',4.810,4.915
'0:02.652',4.805,4.905
'0:02.656',4.810,4.900
'0:02.660',4.795,4.900
'0:02.664',4.800,4.920
'0:02.668',4.825,4.905
'0:02.672',4.835,4.895
'0:02.676',4.840,4.900
'0:02.680',4.860,4.910
'0:02.684',4.885,4.900
'0:02.688',4.890,4.895
'0:02.692',4.865,4.890
'0:02.696',4.880,4.915
'0:02.700',4.890,4.925
'0:02.704',4.895,4.920
'0:02.708',4.890,4.920
'0:02.712',4.920,4.935
'0:02.716',4.940,4.930
'0:02.720',4.925,4.930
'0:02.724',4.905,4.935
'0:02.728',4.905,4.950
'0:02.732',4.925,4.975
'0:02.736',4.920,4.965
'0:02.740',4.930,4.940
'0:02.744',4.935,4.930
'0:02.748',4.895,4.940
'0:02.752',4.855,4.915
'0:02.756',4.840,4.905
'0:02.760',4.820,4.910
'0:02.764',4.805,4.920
'0:02.768',4.805,4.930
'0:02.772',4.800,4.910
'0:02.776',4.785,4.890
'0:02.780',4.790,4.900
'0:02.784',4.790,4.910
'0:02.788',4.780,4.895
'0:02.792',4.780,4.880
'0:02.796',4.785,4.895
'0:02.800',4.785,4.905
'0:02.804',4.780,4.890
'0:02.808',4.765,4.885
'0:02.812',4.765,4.900
'0:02.816',4.765,4.910
'0:02.820',4.760,4.895
'0:02.824',4.765,4.895
'0:02.828',4.755,4.895
'0:02.832',4.765,4.870
'0:02.836',4.755,4.845
'0:02.840',4.700,4.800
'0:02.844',4.665,4.785
'0:02.848',4.645,4.835
'0:02.852',4.600,4.960
'0:02.856',4.625,5.065
'0:02.860',4.780,5.140
'0:02.864',4.985,5.265
'0:02.868',5.295,5.430
'0:02.872',5.690,5.555
'0:02.876',5.935,5.385
'0:02.880',5.955,4.980
'0:02.884',5.580,4.730
'0:02.888',5.035,4.730
'0:02.892',4.660,4.800
'0:02.896',4.580,4.845
'0:02.900',4.585,4.855
'0:02.904',4.715,4.845
'0:02.908',4.710,4.855
'0:02.912',4.715,4.865
'0:02.916',4.735,4.865
'0:02.920',4.730,4.860
'0:02.924',4.725,4.850
'0:02.928',4.725,4.850
'0:02.932',4.725,4.870
'0:02.936',4.725,4.870
'0:02.940',4.730,4.855
'0:02.944',4.715,4.850
'0:02.948',4.720,4.875
'0:02.952',4.730,4.865
'0:02.956',4.720,4.855
'0:02.960',4.710,4.860
'0:02.964',4.705,4.875
'0:02.968',4.715,4.875
'0:02.972',4.720,4.865
'0:02.976',4.705,4.860
'0:02.980',4.705,4.870
'0:02.984',4.715,4.875
'0:02.988',4.710,4.870
'0:02.992',4.700,4.870
'0:02.996',4.710,4.880
'0:03.000',4.705,4.880
'0:03.004',4.720,4.875
'0:03.008',4.700,4.865
'0:03.012',4.705,4.875
'0:03.016',4.725,4.885
'0:03.020',4.730,4.870
'0:03.024',4.715,4.855
'0:03.028',4.715,4.865
'0:03.032',4.715,4.875
'0:03.036',4.705,4.865
'0:03.040',4.690,4.860
'0:03.044',4.690,4.870
'0:03.048',4.705,4.870
'0:03.052',4.710,4.870
'0:03.056',4.695,4.860
'0:03.060',4.695,4.855
'0:03.064',4.715,4.850
'0:03.068',4.725,4.865
'0:03.072',4.725,4.855
'0:03.076',4.705,4.850
'0:03.080',4.720,4.865
'0:03.084',4.745,4.845
'0:03.088',4.735,4.815
'0:03.092',4.710,4.810
'0:03.096',4.705,4.815
'0:03.100',4.700,4.820
'0:03.104',4.685,4.805
'0:03.108',4.685,4.780
'0:03.112',4.695,4.790
'0:03.116',4.705,4.780
'0:03.120',4.710,4.755
'0:03.124',4.690,4.750
'0:03.128',4.680,4.760
'0:03.132',4.685,4.770
'0:03.136',4.690,4.760
'0:03.140',4.675,4.750
'0:03.144',4.675,4.775
'0:03.148',4.690,4.790
'0:03.152',4.695,4.795
'0:03.156',4.690,4.800
'0:03.160',4.695,4.830
'0:03.164',4.730,4.865
'0:03.168',4.770,4.885
'0:03.172',4.785,4.880
'0:03.176',4.770,4.875
'0:03.180',4.780,4.900
'0:03.184',4.805,4.910
'0:03.188',4.800,4.905
'0:03.192',4.795,4.905
'0:03.196',4.825,4.915
'0:03.200',4.830,4.920
'0:03.204',4.830,4.910
'0:03.208',4.820,4.900
'0:03.212',4.820,4.935
'0:03.216',4.835,4.925
'0:03.220',4.830,4.925
'0:03.224',4.825,4.915
'0:03.228',4.825,4.915
'0:03.232',4.840,4.915
'0:03.236',4.840,4.905
'0:03.240',4.815,4.885
'0:03.244',4.810,4.900
'0:03.248',4.810,4.920
'0:03.252',4.820,4.920
'0:03.256',4.810,4.900
'0:03.260',4.800,4.905
'0:03.264',4.810,4.915
'0:03.268',4.810,4.910
'0:03.272',4.800,4.900
'0:03.276',4.795,4.905
'0:03.280',4.810,4.920
'0:03.284',4.810,4.920
'0:03.288',4.805,4.910
'0:03.292',4.785,4.895
'0:03.296',4.800,4.920
'0:03.300',4.805,4.920
'0:03.304',4.810,4.900
'0:03.308',4.795,4.895
'0:03.312',4.785,4.900
'0:03.316',4.800,4.910
'0:03.320',4.780,4.880
'0:03.324',4.775,4.885
'0:03.328',4.765,4.895
'0:03.332',4.780,4.895
'0:03.336',4.785,4.900
'0:03.340',4.790,4.895
'0:03.344',4.785,4.890
'0:03.348',4.780,4.905
'0:03.352',4.780,4.895
'0:03.356',4.785,4.885
'0:03.360',4.795,4.885
'0:03.364',4.795,4.900
'0:03.368',4.795,4.905
'0:03.372',4.795,4.880
'0:03.376',4.775,4.875
'0:03.380',4.780,4.890
'0:03.384',4.785,4.905
'0:03.388',4.785,4.890
'0:03.392',4.790,4.890
'0:03.396',4.795,4.905
'0:03.400',4.790,4.915
'0:03.404',4.795,4.885
'0:03.408',4.785,4.890
'0:03.412',4.775,4.895
'0:03.416',4.785,4.910
'0:03.420',4.785,4.880
'0:03.424',4.780,4.885
'0:03.428',4.800,4.905
'0:03.432',4.820,4.915
'0:03.436',4.825,4.905
'0:03.440',4.835,4.895
'0:03.444',4.850,4.890
'0:03.448',4.865,4.920
'0:03.452',4.880,4.910
'0:03.456',4.875,4.915
'0:03.460',4.885,4.930
'0:03.464',4.905,4.935
'0:03.468',4.910,4.925
'0:03.472',4.905,4.925
'0:03.476',4.885,4.930
'0:03.480',4.885,4.945
'0:03.484',4.905,4.940
'0:03.488',4.910,4.940
'0:03.492',4.900,4.935
'0:03.496',4.905,4.965
'0:03.500',4.910,4.975
'0:03.504',4.915,4.960
'0:03.508',4.920,4.940
'0:03.512',4.885,4.935
'0:03.516',4.875,4.935
'0:03.520',4.855,4.920
'0:03.524',4.825,4.920
'0:03.528',4.805,4.920
'0:03.532',4.785,4.920
'0:03.536',4.785,4.915
'0:03.540',4.775,4.905
'0:03.544',4.775,4.900
'0:03.548',4.775,4.920
'0:03.552',4.780,4.910
'0:03.556',4.765,4.895
'0:03.560',4.750,4.905
'0:03.564',4.760,4.925
'0:03.568',4.770,4.915
'0:03.572',4.765,4.900
'0:03.576',4.750,4.895
'0:03.580',4.760,4.910
'0:03.584',4.760,4.920
'0:03.588',4.755,4.890
'0:03.592',4.740,4.865
'0:03.596',4.710,4.835
'0:03.600',4.700,4.825
'0:03.604',4.650,4.775
'0:03.608',4.575,4.825
'0:03.612',4.540,4.960
'0:03.616',4.625,5.080
'0:03.620',4.780,5.150
'0:03.624',4.955,5.235
'0:03.628',5.260,5.410
'0:03.632',5.655,5.560
'0:03.636',5.950,5.500
'0:03.640',5.965,5.060
'0:03.644',5.615,4.735
'0:03.648',5.055,4.745
'0:03.652',4.685,4.835
'0:03.656',4.590,4.855
'0:03.660',4.650,4.875
'0:03.664',4.715,4.885
'0:03.668',4.725,4.880
'0:03.672',4.715,4.890
'0:03.676',4.715,4.895
'0:03.680',4.730,4.895
'0:03.684',4.740,4.900
'0:03.688',4.730,4.890
'0:03.692',4.715,4.890
'0:03.696',4.725,4.900
'0:03.700',4.730,4.910
'0:03.704',4.730,4.900
'0:03.708',4.730,4.895
'0:03.712',4.730,4.900
'0:03.716',4.735,4.915
'0:03.720',4.735,4.905
'0:03.724',4.720,4.890
'0:03.728',4.725,4.915
'0:03.732',4.740,4.910
'0:03.736',4.750,4.915
'0:03.740',4.735,4.895
'0:03.744',4.735,4.910
'0:03.748',4.740,4.925
'0:03.752',4.745,4.920
'0:03.756',4.735,4.890
'0:03.760',4.720,4.905
'0:03.764',4.735,4.935
'0:03.768',4.740,4.925
'0:03.772',4.730,4.905
'0:03.776',4.730,4.900
'0:03.780',4.745,4.920
'0:03.784',4.750,4.910
'0:03.788',4.745,4.910
'0:03.792',4.725,4.910
'0:03.796',4.735,4.915
'0:03.800',4.740,4.920
'0:03.804',4.745,4.905
'0:03.808',4.730,4.900
'0:03.812',4.745,4.905
'0:03.816',4.750,4.900
'0:03.820',4.750,4.885
'0:03.824',4.740,4.880
'0:03.828',4.735,4.885
'0:03.832',4.745,4.885
'0:03.836',4.760,4.875
'0:03.840',4.750,4.855
'0:03.844',4.740,4.855
'0:03.848',4.745,4.850
'0:03.852',4.745,4.840
'0:03.856',4.740,4.825
'0:03.860',4.725,4.825
'0:03.864',4.735,4.825
'0:03.868',4.735,4.805
'0:03.872',4.725,4.780
'0:03.876',4.705,4.780
'0:03.880',4.710,4.780
'0:03.884',4.705,4.780
'0:03.888',4.695,4.750
'0:03.892',4.695,4.750
'0:03.896',4.710,4.770
'0:03.900',4.710,4.780
'0:03.904',4.710,4.785
'0:03.908',4.695,4.790
'0:03.912',4.715,4.815
'0:03.916',4.735,4.840
'0:03.920',4.745,4.855
'0:03.924',4.750,4.875
'0:03.928',4.775,4.900
'0:03.932',4.800,4.915
'0:03.936',4.820,4.915
'0:03.940',4.820,4.920
'0:03.944',4.830,4.935
'0:03.948',4.855,4.965
'0:03.952',4.860,4.955
'0:03.956',4.860,4.935
'0:03.960',4.855,4.945
'0:03.964',4.880,4.970
'0:03.968',4.875,4.970
'0:03.972',4.880,4.960
'0:03.976',4.865,4.945
'0:03.980',4.875,4.950
'0:03.984',4.885,4.960
'0:03.988',4.880,4.955
'0:03.992',4.875,4.945
'0:03.996',4.865,4.960
'0:04.000',4.870,4.970
'0:04.004',4.870,4.955
'0:04.008',4.865,4.950
'0:04.012',4.855,4.960
'0:04.016',4.870,4.975
'0:04.020',4.875,4.955
'0:04.024',4.860,4.950
'0:04.028',4.855,4.945
'0:04.032',4.860,4.960
'0:04.036',4.855,4.955
'0:04.040',4.850,4.945
'0:04.044',4.855,4.940
'0:04.048',4.865,4.960
'0:04.052',4.870,4.945
'0:04.056',4.860,4.940
'0:04.060',4.845,4.940
'0:04.064',4.865,4.960
'0:04.068',4.870,4.955
'0:04.072',4.865,4.940
'0:04.076',4.845,4.940
'0:04.080',4.840,4.950
'0:04.084',4.855,4.940
'0:04.088',4.845,4.925
'0:04.092',4.830,4.920
'0:04.096',4.835,4.930
'0:04.100',4.840,4.940
'0:04.104',4.840,4.930
'0:04.108',4.835,4.920
'0:04.112',4.830,4.925
'0:04.116',4.840,4.930
'0:04.120',4.840,4.920
'0:04.124',4.830,4.915
'0:04.128',4.825,4.930
'0:04.132',4.850,4.935
'0:04.136',4.850,4.930
'0:04.140',4.840,4.920
'0:04.144',4.835,4.925
'0:04.148',4.840,4.935
'0:04.152',4.855,4.935
'0:04.156',4.845,4.915
'0:04.160',4.835,4.920
'0:04.164',4.850,4.925
'0:04.168',4.860,4.920
'0:04.172',4.865,4.915
'0:04.176',4.865,4.915
'0:04.180',4.875,4.930
'0:04.184',4.895,4.930
'0:04.188',4.900,4.920
'0:04.192',4.900,4.910
'0:04.196',4.915,4.920
'0:04.200',4.920,4.925
'0:04.204',4.930,4.930
'0:04.208',4.925,4.925
'0:04.212',4.940,4.945
'0:04.216',4.945,4.950
'0:04.220',4.945,4.955
'0:04.224',4.950,4.950
'0:04.228',4.965,4.960
'0:04.232',4.960,4.980
'0:04.236',4.955,4.970
'0:04.240',4.950,4.970
'0:04.244',4.950,4.985
'0:04.248',4.950,5.005
'0:04.252',4.965,4.985
'0:04.256',4.985,4.950
'0:04.260',4.940,4.935
'0:04.264',4.895,4.955
'0:04.268',4.900,4.950
'0:04.272',4.880,4.940
'0:04.276',4.850,4.930
'0:04.280',4.840,4.935
'0:04.284',4.825,4.935
'0:04.288',4.810,4.915
'0:04.292',4.800,4.915
'0:04.296',4.820,4.920
'0:04.300',4.830,4.925
'0:04.304',4.815,4.915
'0:04.308',4.795,4.905
'0:04.312',4.805,4.920
'0:04.316',4.810,4.920
'0:04.320',4.800,4.920
'0:04.324',4.785,4.900
'0:04.328',4.790,4.905
'0:04.332',4.795,4.920
'0:04.336',4.800,4.910
'0:04.340',4.780,4.885
'0:04.344',4.775,4.855
'0:04.348',4.770,4.840
'0:04.352',4.710,4.800
'0:04.356',4.675,4.760
'0:04.360',4.635,4.815
'0:04.364',4.585,4.970
'0:04.368',4.655,5.105
'0:04.372',4.795,5.205
'0:04.376',4.985,5.355
'0:04.380',5.280,5.515
'0:04.384',5.650,5.625
'0:04.388',5.920,5.545
'0:04.392',5.960,5.125
'0:04.396',5.675,4.800
'0:04.400',5.535,4.745
'0:04.404',4.700,4.810
'0:04.408',4.555,4.815
'0:04.412',4.625,4.845
'0:04.416',4.710,4.870
'0:04.420',4.750,4.850
'0:04.424',4.735,4.845
'0:04.428',4.725,4.845
'0:04.432',4.740,4.860
'0:04.436',4.735,4.855
'0:04.440',4.740,4.850
'0:04.444',4.730,4.850
'0:04.448',4.740,4.850
'0:04.452',4.745,4.860
'0:04.456',4.730,4.855
'0:04.460',4.725,4.855
'0:04.464',4.730,4.870
'0:04.468',4.745,4.870
'0:04.472',4.735,4.860
'0:04.476',4.720,4.860
'0:04.480',4.725,4.875
'0:04.484',4.745,4.870
'0:04.488',4.740,4.860
'0:04.492',4.725,4.840
'0:04.496',4.740,4.870
'0:04.500',4.745,4.875
'0:04.504',4.750,4.865
'0:04.508',4.740,4.855
'0:04.512',4.740,4.865
'0:04.516',4.750,4.865
'0:04.520',4.760,4.870
'0:04.524',4.740,4.855
'0:04.528',4.745,4.870
'0:04.532',4.745,4.870
'0:04.536',4.750,4.855
'0:04.540',4.740,4.840
'0:04.544',4.735,4.855
'0:04.548',4.745,4.870
'0:04.552',4.750,4.860
'0:04.556',4.745,4.850
'0:04.560',4.730,4.840
'0:04.564',4.740,4.855
'0:04.568',4.760,4.850
'0:04.572',4.745,4.840
'0:04.576',4.735,4.825
'0:04.580',4.745,4.835
'0:04.584',4.760,4.830
'0:04.588',4.755,4.820
'0:04.592',4.735,4.815
'0:04.596',4.755,4.820
'0:04.600',4.760,4.810
'0:04.604',4.755,4.790
'0:04.608',4.740,4.775
'0:04.612',4.735,4.790
'0:04.616',4.760,4.785
'0:04.620',4.745,4.770
'0:04.624',4.745,4.750
'0:04.628',4.750,4.760
'0:04.632',4.750,4.760
'0:04.636',4.745,4.745
'0:04.640',4.745,4.735
'0:04.644',4.730,4.735
'0:04.648',4.735,4.760
'0:04.652',4.750,4.750
'0:04.656',4.735,4.730
'0:04.660',4.725,4.730
'0:04.664',4.730,4.750
'0:04.668',4.750,4.745
'0:04.672',4.750,4.740
'0:04.676',4.740,4.750
'0:04.680',4.750,4.770
'0:04.684',4.760,4.780
'0:04.688',4.765,4.785
'0:04.692',4.755,4.795
'0:04.696',4.775,4.830
'0:04.700',4.785,4.835
'0:04.704',4.795,4.840
'0:04.708',4.795,4.855
'0:04.712',4.805,4.865
'0:04.716',4.820,4.885
'0:04.720',4.840,4.885
'0:04.724',4.830,4.890
'0:04.728',4.830,4.900
'0:04.732',4.845,4.910
'0:04.736',4.850,4.905
'0:04.740',4.840,4.890
'0:04.744',4.840,4.900
'0:04.748',4.850,4.915
'0:04.752',4.850,4.905
'0:04.756',4.850,4.895
'0:04.760',4.835,4.890
'0:04.764',4.855,4.920
'0:04.768',4.860,4.920
'0:04.772',4.850,4.910
'0:04.776',4.835,4.900
'0:04.780',4.840,4.915
'0:04.784',4.845,4.910
'0:04.788',4.840,4.905
'0:04.792',4.825,4.910
'0:04.796',4.835,4.910
'0:04.800',4.835,4.920
'0:04.804',4.825,4.900
'0:04.808',4.820,4.895
'0:04.812',4.825,4.900
'0:04.816',4.830,4.910
'0:04.820',4.835,4.910
'0:04.824',4.825,4.885
'0:04.828',4.815,4.890
'0:04.832',4.825,4.900
'0:04.836',4.825,4.900
'0:04.840',4.810,4.885
'0:04.844',4.805,4.885
'0:04.848',4.815,4.890
'0:04.852',4.815,4.890
'0:04.856',4.805,4.880
'0:04.860',4.795,4.880
'0:04.864',4.805,4.900
'0:04.868',4.805,4.890
'0:04.872',4.805,4.875
'0:04.876',4.795,4.870
'0:04.880',4.805,4.885
'0:04.884',4.810,4.880
'0:04.888',4.810,4.880
'0:04.892',4.785,4.865
'0:04.896',4.790,4.885
'0:04.900',4.795,4.880
'0:04.904',4.795,4.865
'0:04.908',4.785,4.850
'0:04.912',4.780,4.860
'0:04.916',4.795,4.875
'0:04.920',4.800,4.860
'0:04.924',4.770,4.855
'0:04.928',4.770,4.870
'0:04.932',4.795,4.870
'0:04.936',4.805,4.875
'0:04.940',4.790,4.865
'0:04.944',4.790,4.870
'0:04.948',4.800,4.885
'0:04.952',4.810,4.880
'0:04.956',4.820,4.855
'0:04.960',4.820,4.855
'0:04.964',4.835,4.875
'0:04.968',4.850,4.880
'0:04.972',4.855,4.855
'0:04.976',4.845,4.860
'0:04.980',4.860,4.865
'0:04.984',4.870,4.875
'0:04.988',4.870,4.875
'0:04.992',4.880,4.880
'0:04.996',4.895,4.905
'0:05.000',4.905,4.915
'0:05.004',4.925,4.895
'0:05.008',4.920,4.885
'0:05.012',4.915,4.915
'0:05.016',4.910,4.930
'0:05.020',4.920,4.935
'0:05.024',4.905,4.925
'0:05.028',4.915,4.940
'0:05.032',4.930,4.945
'0:05.036',4.935,4.915
'0:05.040',4.905,4.895
'0:05.044',4.855,4.895
'0:05.048',4.845,4.905
'0:05.052',4.845,4.890
'0:05.056',4.815,4.875
'0:05.060',4.785,4.870
'0:05.064',4.780,4.865
'0:05.068',4.780,4.865
'0:05.072',4.770,4.870
'0:05.076',4.760,4.855
'0:05.080',4.765,4.870
'0:05.084',4.770,4.870
'0:05.088',4.760,4.860
'0:05.092',4.745,4.855
'0:05.096',4.765,4.865
'0:05.100',4.775,4.875
'0:05.104',4.780,4.860
'0:05.108',4.755,4.850
'0:05.112',4.760,4.850
'0:05.116',4.750,4.860
'0:05.120',4.750,4.875
'0:05.124',4.745,4.860
'0:05.128',4.745,4.870
'0:05.132',4.755,4.865
'0:05.136',4.760,4.845
'0:05.140',4.715,4.790
'0:05.144',4.670,4.775
'0:05.148',4.630,4.760
'0:05.152',4.630,4.755
'0:05.156',4.570,4.830
'0:05.160',4.550,4.970
'0:05.164',4.670,5.075
'0:05.168',4.845,5.190
'0:05.172',5.080,5.310
'0:05.176',5.430,5.455
'0:05.180',5.785,5.515
'0:05.184',5.940,5.240
'0:05.188',5.745,4.810
'0:05.192',5.220,4.660
'0:05.196',4.730,4.755
'0:05.200',4.625,4.785
'0:05.204',4.600,4.800
'0:05.208',4.645,4.800
'0:05.212',4.675,4.815
'0:05.216',4.690,4.830
'0:05.220',4.700,4.825
'0:05.224',4.690,4.810
'0:05.228',4.690,4.810
'0:05.232',4.695,4.825
'0:05.236',4.700,4.820
'0:05.240',4.690,4.820
'0:05.244',4.685,4.820
'0:05.248',4.690,4.820
'0:05.252',4.705,4.820
'0:05.256',4.700,4.810
'0:05.260',4.695,4.820
'0:05.264',4.700,4.835
'0:05.268',4.705,4.835
'0:05.272',4.700,4.835
'0:05.276',4.695,4.815
'0:05.280',4.705,4.830
'0:05.284',4.700,4.840
'0:05.288',4.685,4.820
'0:05.292',4.675,4.825
'0:05.296',4.685,4.825
'0:05.300',4.690,4.830
'0:05.304',4.695,4.835
'0:05.308',4.700,4.820
'0:05.312',4.680,4.820
'0:05.316',4.700,4.835
'0:05.320',4.705,4.835
'0:05.324',4.705,4.820
'0:05.328',4.700,4.830
'0:05.332',4.695,4.830
'0:05.336',4.700,4.830
'0:05.340',4.685,4.815
'0:05.344',4.680,4.830
'0:05.348',4.685,4.840
'0:05.352',4.700,4.830
'0:05.356',4.690,4.805
'0:05.360',4.675,4.805
'0:05.364',4.695,4.835
'0:05.368',4.700,4.845
'0:05.372',4.710,4.825
'0:05.376',4.700,4.805
'0:05.380',4.695,4.820
'0:05.384',4.695,4.825
'0:05.388',4.695,4.815
'0:05.392',4.690,4.795
'0:05.396',4.705,4.805
'0:05.400',4.705,4.810
'0:05.404',4.710,4.785
'0:05.408',4.705,4.775
'0:05.412',4.705,4.780
'0:05.416',4.720,4.780
'0:05.420',4.710,4.760
'0:05.424',4.690,4.740
'0:05.428',4.680,4.735
'0:05.432',4.695,4.745
'0:05.436',4.700,4.740
'0:05.440',4.680,4.715
'0:05.444',4.680,4.715
'0:05.448',4.685,4.720
'0:05.452',4.685,4.715
'0:05.456',4.665,4.720
'0:05.460',4.670,4.735
'0:05.464',4.685,4.740
'0:05.468',4.695,4.755
'0:05.472',4.705,4.755
'0:05.476',4.700,4.785
'0:05.480',4.720,4.820
'0:05.484',4.730,4.815
'0:05.488',4.755,4.815
'0:05.492',4.745,4.815
'0:05.496',4.765,4.845
'0:05.500',4.775,4.855
'0:05.504',4.780,4.835
'0:05.508',4.770,4.835
'0:05.512',4.770,4.845
'0:05.516',4.785,4.865
'0:05.520',4.780,4.860
'0:05.524',4.780,4.855
'0:05.528',4.775,4.855
'0:05.532',4.790,4.860
'0:05.536',4.790,4.865
'0:05.540',4.775,4.855
'0:05.544',4.785,4.875
'0:05.548',4.805,4.870
'0:05.552',4.820,4.855
'0:05.556',4.800,4.850
'0:05.560',4.790,4.860
'0:05.564',4.790,4.870
'0:05.568',4.785,4.860
'0:05.572',4.785,4.860
'0:05.576',4.760,4.850
'0:05.580',4.775,4.860
'0:05.584',4.785,4.875
'0:05.588',4.775,4.855
'0:05.592',4.765,4.840
'0:05.596',4.780,4.855
'0:05.600',4.785,4.855
'0:05.604',4.795,4.860
'0:05.608',4.780,4.845
'0:05.612',4.770,4.850
'0:05.616',4.770,4.855
'0:05.620',4.765,4.840
'0:05.624',4.760,4.825
'0:05.628',4.760,4.835
'0:05.632',4.765,4.850
'0:05.636',4.780,4.840
'0:05.640',4.770,4.835
'0:05.644',4.760,4.840
'0:05.648',4.760,4.865
'0:05.652',4.760,4.855
'0:05.656',4.750,4.840
'0:05.660',4.745,4.845
'0:05.664',4.755,4.850
'0:05.668',4.770,4.835
'0:05.672',4.755,4.835
'0:05.676',4.725,4.840
'0:05.680',4.735,4.845
'0:05.684',4.740,4.855
'0:05.688',4.740,4.835
'0:05.692',4.725,4.820
'0:05.696',4.735,4.830
'0:05.700',4.740,4.835
'0:05.704',4.745,4.830
'0:05.708',4.735,4.815
'0:05.712',4.740,4.820
'0:05.716',4.750,4.830
'0:05.720',4.735,4.830
'0:05.724',4.725,4.825
'0:05.728',4.725,4.840
'0:05.732',4.735,4.840
'0:05.736',4.740,4.820
'0:05.740',4.740,4.815
'0:05.744',4.735,4.820
'0:05.748',4.735,4.840
'0:05.752',4.735,4.820
'0:05.756',4.725,4.825
'0:05.760',4.720,4.835
'0:05.764',4.740,4.840
'0:05.768',4.755,4.835
'0:05.772',4.770,4.825
'0:05.776',4.765,4.820
'0:05.780',4.775,4.825
'0:05.784',4.780,4.820
'0:05.788',4.790,4.825
'0:05.792',4.785,4.815
'0:05.796',4.790,4.825
'0:05.800',4.800,4.830
'0:05.804',4.820,4.840
'0:05.808',4.810,4.830
'0:05.812',4.825,4.845
'0:05.816',4.855,4.865
'0:05.820',4.870,4.870
'0:05.824',4.855,4.855
'0:05.828',4.840,4.850
'0:05.832',4.835,4.875
'0:05.836',4.850,4.885
'0:05.840',4.850,4.880
'0:05.844',4.855,4.890
'0:05.848',4.860,4.890
'0:05.852',4.855,4.860
'0:05.856',4.820,4.850
'0:05.860',4.780,4.845
'0:05.864',4.785,4.855
'0:05.868',4.775,4.850
'0:05.872',4.745,4.835
'0:05.876',4.720,4.830
'0:05.880',4.720,4.840
'0:05.884',4.715,4.835
'0:05.888',4.720,4.830
'0:05.892',4.700,4.820
'0:05.896',4.695,4.840
'0:05.900',4.705,4.850
'0:05.904',4.710,4.835
'0:05.908',4.675,4.815
'0:05.912',4.670,4.820
'0:05.916',4.685,4.825
'0:05.920',4.695,4.805
'0:05.924',4.680,4.815
'0:05.928',4.675,4.830
'0:05.932',4.690,4.835
'0:05.936',4.705,4.835
'0:05.940',4.700,4.825
'0:05.944',4.690,4.830
'0:05.948',4.695,4.850
'0:05.952',4.695,4.835
'0:05.956',4.685,4.810
'0:05.960',4.650,4.775
'0:05.964',4.620,4.775
'0:05.968',4.605,4.745
'0:05.972',4.575,4.720
'0:05.976',4.505,4.775
'0:05.980',4.485,4.915
'0:05.984',4.605,5.020
'0:05.988',4.790,5.090
'0:05.992',5.020,5.215
'0:05.996',5.410,5.390
'0:06.000',5.540,5.445
'0:06.004',5.890,5.225
'0:06.008',5.710,4.795
'0:06.012',5.180,4.635
'0:06.016',4.740,4.700
'0:06.020',4.520,4.750
'0:06.024',4.505,4.760
'0:06.028',4.565,4.795
'0:06.032',4.620,4.795
'0:06.036',4.620,4.795
'0:06.040',4.600,4.785
'0:06.044',4.605,4.800
'0:06.048',4.620,4.800
'0:06.052',4.630,4.810
'0:06.056',4.625,4.795
'0:06.060',4.615,4.800
'0:06.064',4.630,4.820
'0:06.068',4.640,4.815
'0:06.072',4.640,4.800
'0:06.076',4.620,4.790
'0:06.080',4.630,4.810
'0:06.084',4.635,4.815
'0:06.088',4.625,4.815
'0:06.092',4.620,4.800
'0:06.096',4.620,4.815
'0:06.100',4.625,4.825
'0:06.104',4.635,4.820
'0:06.108',4.620,4.805
'0:06.112',4.620,4.815
'0:06.116',4.630,4.830
'0:06.120',4.630,4.820
'0:06.124',4.610,4.815
'0:06.128',4.615,4.830
'0:06.132',4.630,4.825
'0:06.136',4.635,4.830
'0:06.140',4.625,4.815
'0:06.144',4.615,4.810
'0:06.148',4.625,4.830
'0:06.152',4.625,4.830
'0:06.156',4.630,4.825
'0:06.160',4.615,4.820
'0:06.164',4.630,4.825
'0:06.168',4.645,4.830
'0:06.172',4.635,4.825
'0:06.176',4.615,4.820
'0:06.180',4.625,4.830
'0:06.184',4.640,4.835
'0:06.188',4.630,4.815
'0:06.192',4.620,4.800
'0:06.196',4.635,4.820
'0:06.200',4.640,4.830
'0:06.204',4.645,4.810
'0:06.208',4.635,4.810
'0:06.212',4.635,4.800
'0:06.216',4.645,4.800
'0:06.220',4.645,4.795
'0:06.224',4.630,4.775
'0:06.228',4.625,4.780
'0:06.232',4.630,4.785
'0:06.236',4.635,4.775
'0:06.240',4.625,4.770
'0:06.244',4.620,4.755
'0:06.248',4.625,4.750
'0:06.252',4.620,4.750
'0:06.256',4.615,4.735
'0:06.260',4.590,4.730
'0:06.264',4.585,4.730
'0:06.268',4.585,4.720
'0:06.272',4.580,4.710
'0:06.276',4.565,4.710
'0:06.280',4.575,4.740
'0:06.284',4.595,4.745
'0:06.288',4.600,4.750
'0:06.292',4.600,4.760
'0:06.296',4.625,4.795
'0:06.300',4.640,4.800
'0:06.304',4.665,4.840
'0:06.308',4.680,4.845
'0:06.312',4.700,4.855
'0:06.316',4.725,4.880
'0:06.320',4.740,4.890
'0:06.324',4.735,4.885
'0:06.328',4.735,4.885
'0:06.332',4.760,4.895
'0:06.336',4.775,4.895
'0:06.340',4.765,4.905
'0:06.344',4.755,4.895
'0:06.348',4.765,4.915
'0:06.352',4.780,4.905
'0:06.356',4.760,4.900
'0:06.360',4.750,4.905
'0:06.364',4.755,4.920
'0:06.368',4.785,4.930
'0:06.372',4.780,4.900
'0:06.376',4.770,4.900
'0:06.380',4.770,4.910
'0:06.384',4.775,4.920
'0:06.388',4.775,4.920
'0:06.392',4.765,4.895
'0:06.396',4.765,4.915
'0:06.400',4.765,4.920
'0:06.404',4.780,4.915
'0:06.408',4.765,4.905
'0:06.412',4.765,4.910
'0:06.416',4.770,4.910
'0:06.420',4.770,4.910
'0:06.424',4.760,4.900
'0:06.428',4.760,4.905
'0:06.432',4.770,4.910
'0:06.436',4.775,4.905
'0:06.440',4.760,4.895
'0:06.444',4.740,4.895
'0:06.448',4.760,4.910
'0:06.452',4.770,4.915
'0:06.456',4.765,4.890
'0:06.460',4.745,4.900
'0:06.464',4.755,4.915
'0:06.468',4.760,4.905
'0:06.472',4.760,4.895
'0:06.476',4.750,4.890
'0:06.480',4.750,4.920
'0:06.484',4.760,4.910
'0:06.488',4.765,4.895
'0:06.492',4.750,4.885
'0:06.496',4.740,4.910
'0:06.500',4.745,4.920
'0:06.504',4.760,4.905
'0:06.508',4.755,4.895
'0:06.512',4.760,4.905
'0:06.516',4.770,4.915
'0:06.520',4.765,4.915
'0:06.524',4.750,4.900
'0:06.528',4.760,4.915
'0:06.532',4.775,4.915
'0:06.536',4.775,4.905
'0:06.540',4.765,4.895
'0:06.544',4.760,4.895
'0:06.548',4.765,4.915
'0:06.552',4.785,4.905
'0:06.556',4.800,4.885
'0:06.560',4.790,4.890
'0:06.564',4.815,4.905
'0:06.568',4.835,4.915
'0:06.572',4.840,4.910
'0:06.576',4.830,4.895
'0:06.580',4.845,4.915
'0:06.584',4.870,4.910
'0:06.588',4.875,4.930
'0:06.592',4.860,4.940
'0:06.596',4.885,4.945
'0:06.600',4.890,4.960
'0:06.604',4.900,4.950
'0:06.608',4.890,4.925
'0:06.612',4.875,4.935
'0:06.616',4.880,4.950
'0:06.620',4.865,4.945
'0:06.624',4.870,4.950
'0:06.628',4.870,4.960
'0:06.632',4.885,4.975
'0:06.636',4.890,4.980
'0:06.640',4.870,4.980
'0:06.644',4.895,4.965
'0:06.648',4.905,4.965
'0:06.652',4.875,4.955
'0:06.656',4.830,4.935
'0:06.660',4.810,4.940
'0:06.664',4.810,4.940
'0:06.668',4.800,4.935
'0:06.672',4.775,4.925
'0:06.676',4.740,4.930
'0:06.680',4.755,4.935
'0:06.684',4.760,4.930
'0:06.688',4.760,4.925
'0:06.692',4.740,4.915
'0:06.696',4.745,4.920
'0:06.700',4.750,4.920
'0:06.704',4.745,4.925
'0:06.708',4.735,4.910
'0:06.712',4.725,4.910
'0:06.716',4.740,4.920
'0:06.720',4.725,4.925
'0:06.724',4.725,4.905
'0:06.728',4.715,4.910
'0:06.732',4.730,4.910
'0:06.736',4.735,4.900
'0:06.740',4.705,4.860
'0:06.744',4.665,4.845
'0:06.748',4.645,4.815
'0:06.752',4.620,4.775
'0:06.756',4.570,4.780
'0:06.760',4.510,4.900
'0:06.764',4.555,5.065
'0:06.768',4.730,5.185
'0:06.772',4.895,5.300
'0:06.776',5.150,5.435
'0:06.780',5.550,5.600
'0:06.784',5.860,5.645
'0:06.788',5.940,5.350
'0:06.792',5.690,4.900
'0:06.796',5.095,4.760
'0:06.800',4.900,4.770
'0:06.804',4.515,4.830
'0:06.808',4.575,4.855
'0:06.812',4.645,4.875
'0:06.816',4.690,4.880
'0:06.820',4.695,4.880
'0:06.824',4.680,4.865
'0:06.828',4.685,4.865
'0:06.832',4.705,4.865
'0:06.836',4.705,4.870
'0:06.840',4.700,4.865
'0:06.844',4.690,4.875
'0:06.848',4.690,4.890
'0:06.852',4.695,4.880
'0:06.856',4.685,4.875
'0:06.860',4.675,4.870
'0:06.864',4.690,4.895
'0:06.868',4.700,4.880
'0:06.872',4.695,4.875
'0:06.876',4.690,4.870
'0:06.880',4.690,4.885
'0:06.884',4.690,4.885
'0:06.888',4.700,4.885
'0:06.892',4.695,4.880
'0:06.896',4.685,4.890
'0:06.900',4.685,4.895
'0:06.904',4.690,4.890
'0:06.908',4.690,4.880
'0:06.912',4.685,4.890
'0:06.916',4.705,4.895
'0:06.920',4.710,4.885
'0:06.924',4.705,4.870
'0:06.928',4.695,4.880
'0:06.932',4.715,4.885
'0:06.936',4.715,4.885
'0:06.940',4.705,4.870
'0:06.944',4.695,4.860
'0:06.948',4.700,4.880
'0:06.952',4.710,4.875
'0:06.956',4.695,4.875
'0:06.960',4.690,4.855
'0:06.964',4.705,4.860
'0:06.968',4.720,4.855
'0:06.972',4.710,4.855
'0:06.976',4.705,4.840
'0:06.980',4.715,4.845
'0:06.984',4.735,4.855
'0:06.988',4.720,4.835
'0:06.992',4.705,4.820
'0:06.996',4.695,4.825
'0:07.000',4.690,4.825
'0:07.004',4.700,4.815
'0:07.008',4.695,4.795
'0:07.012',4.695,4.800
'0:07.016',4.710,4.800
'0:07.020',4.700,4.790
'0:07.024',4.690,4.775
'0:07.028',4.685,4.770
'0:07.032',4.705,4.775
'0:07.036',4.710,4.765
'0:07.040',4.695,4.760
'0:07.044',4.695,4.755
'0:07.048',4.705,4.770
'0:07.052',4.695,4.780
'0:07.056',4.690,4.775
'0:07.060',4.700,4.785
'0:07.064',4.700,4.810
'0:07.068',4.725,4.835
'0:07.072',4.730,4.840
'0:07.076',4.730,4.840
'0:07.080',4.750,4.870
'0:07.084',4.770,4.890
'0:07.088',4.780,4.900
'0:07.092',4.780,4.905
'0:07.096',4.795,4.925
'0:07.100',4.800,4.930
'0:07.104',4.810,4.930
'0:07.108',4.810,4.930
'0:07.112',4.815,4.935
'0:07.116',4.830,4.940
'0:07.120',4.835,4.935
'0:07.124',4.825,4.930
'0:07.128',4.820,4.945
'0:07.132',4.825,4.970
'0:07.136',4.825,4.955
'0:07.140',4.820,4.940
'0:07.144',4.810,4.935
'0:07.148',4.810,4.950
'0:07.152',4.815,4.955
'0:07.156',4.810,4.940
'0:07.160',4.800,4.940
'0:07.164',4.810,4.955
'0:07.168',4.815,4.950
'0:07.172',4.810,4.945
'0:07.176',4.800,4.935
'0:07.180',4.805,4.950
'0:07.184',4.815,4.960
'0:07.188',4.805,4.955
'0:07.192',4.805,4.935
'0:07.196',4.815,4.940
'0:07.200',4.825,4.935
'0:07.204',4.810,4.950
'0:07.208',4.810,4.945
'0:07.212',4.805,4.950
'0:07.216',4.820,4.960
'0:07.220',4.810,4.955
'0:07.224',4.795,4.930
'0:07.228',4.785,4.945
'0:07.232',4.795,4.955
'0:07.236',4.790,4.950
'0:07.240',4.790,4.935
'0:07.244',4.785,4.930
'0:07.248',4.795,4.940
'0:07.252',4.805,4.940
'0:07.256',4.785,4.935
'0:07.260',4.780,4.935
'0:07.264',4.795,4.945
'0:07.268',4.800,4.945
'0:07.272',4.790,4.930
'0:07.276',4.785,4.930
'0:07.280',4.795,4.940
'0:07.284',4.800,4.945
'0:07.288',4.795,4.940
'0:07.292',4.780,4.930
'0:07.296',4.775,4.945
'0:07.300',4.785,4.950
'0:07.304',4.790,4.945
'0:07.308',4.790,4.940
'0:07.312',4.800,4.930
'0:07.316',4.815,4.940
'0:07.320',4.815,4.940
'0:07.324',4.825,4.925
'0:07.328',4.825,4.940
'0:07.332',4.860,4.950
'0:07.336',4.865,4.950
'0:07.340',4.865,4.935
'0:07.344',4.875,4.950
'0:07.348',4.895,4.970
'0:07.352',4.900,4.975
'0:07.356',4.900,4.970
'0:07.360',4.895,4.975
'0:07.364',4.915,4.990
'0:07.368',4.930,4.995
'0:07.372',4.920,4.990
'0:07.376',4.910,4.975
'0:07.380',4.900,4.990
'0:07.384',4.910,5.015
'0:07.388',4.905,5.010
'0:07.392',4.910,5.005
'0:07.396',4.910,5.030
'0:07.400',4.910,5.045
'0:07.404',4.935,5.035
'0:07.408',4.940,4.995
'0:07.412',4.915,4.990
'0:07.416',4.885,5.000
'0:07.420',4.865,4.995
'0:07.424',4.850,4.990
'0:07.428',4.820,4.985
'0:07.432',4.810,4.985
'0:07.436',4.795,4.985
'0:07.440',4.775,4.970
'0:07.444',4.780,4.965
'0:07.448',4.785,4.980
'0:07.452',4.795,4.980
'0:07.456',4.775,4.960
'0:07.460',4.770,4.965
'0:07.464',4.770,4.985
'0:07.468',4.780,4.990
'0:07.472',4.780,4.970
'0:07.476',4.770,4.955
'0:07.480',4.770,4.970
'0:07.484',4.790,4.985
'0:07.488',4.775,4.975
'0:07.492',4.765,4.960
'0:07.496',4.765,4.955
'0:07.500',4.760,4.960
'0:07.504',4.735,4.905
'0:07.508',4.680,4.885
'0:07.512',4.650,4.870
'0:07.516',4.670,4.845
'0:07.520',4.640,4.810
'0:07.524',4.565,4.805
'0:07.528',4.510,4.850
'0:07.532',4.555,4.960
'0:07.536',4.615,5.090
'0:07.540',4.735,5.195
'0:07.544',4.885,5.300
'0:07.548',5.110,5.440
'0:07.552',5.475,5.590
'0:07.556',5.810,5.655
'0:07.560',5.925,5.425
'0:07.564',5.795,5.020
'0:07.568',5.300,4.835
'0:07.572',4.765,4.850
'0:07.576',4.575,4.890
'0:07.580',4.615,4.920
'0:07.584',4.710,4.945
'0:07.588',4.730,4.925
'0:07.592',4.710,4.915
'0:07.596',4.720,4.930
'0:07.600',4.730,4.935
'0:07.604',4.745,4.935
'0:07.608',4.735,4.920
'0:07.612',4.725,4.935
'0:07.616',4.745,4.945
'0:07.620',4.745,4.940
'0:07.624',4.735,4.920
'0:07.628',4.725,4.935
'0:07.632',4.740,4.950
'0:07.636',4.750,4.945
'0:07.640',4.730,4.940
'0:07.644',4.730,4.935
'0:07.648',4.735,4.945
'0:07.652',4.740,4.945
'0:07.656',4.735,4.950
'0:07.660',4.730,4.940
'0:07.664',4.735,4.955
'0:07.668',4.740,4.955
'0:07.672',4.735,4.940
'0:07.676',4.730,4.935
'0:07.680',4.740,4.950
'0:07.684',4.745,4.960
'0:07.688',4.750,4.950
'0:07.692',4.730,4.925
'0:07.696',4.730,4.940
'0:07.700',4.735,4.945
'0:07.704',4.745,4.945
'0:07.708',4.740,4.935
'0:07.712',4.730,4.935
'0:07.716',4.750,4.940
'0:07.720',4.750,4.925
'0:07.724',4.735,4.915
'0:07.728',4.725,4.920
'0:07.732',4.740,4.930
'0:07.736',4.750,4.925
'0:07.740',4.740,4.910
'0:07.744',4.735,4.915
'0:07.748',4.750,4.915
'0:07.752',4.760,4.915
'0:07.756',4.765,4.890
'0:07.760',4.745,4.880
'0:07.764',4.755,4.890
'0:07.768',4.765,4.895
'0:07.772',4.750,4.885
'0:07.776',4.745,4.860
'0:07.780',4.745,4.860
'0:07.784',4.755,4.860
'0:07.788',4.745,4.850
'0:07.792',4.740,4.825
'0:07.796',4.735,4.835
'0:07.800',4.740,4.840
'0:07.804',4.745,4.830
'0:07.808',4.740,4.810
'0:07.812',4.740,4.820
'0:07.816',4.750,4.835
'0:07.820',4.760,4.845
'0:07.824',4.760,4.835
'0:07.828',4.750,4.840
'0:07.832',4.770,4.865
'0:07.836',4.780,4.895
'0:07.840',4.780,4.890
'0:07.844',4.785,4.910
'0:07.848',4.810,4.935
'0:07.852',4.820,4.945
'0:07.856',4.825,4.945
'0:07.860',4.820,4.955
'0:07.864',4.845,4.985
'0:07.868',4.875,4.990
'0:07.872',4.865,4.980
'0:07.876',4.870,4.965
'0:07.880',4.865,4.990
'0:07.884',4.875,5.000
'0:07.888',4.880,4.995
'0:07.892',4.860,4.980
'0:07.896',4.860,4.995
'0:07.900',4.865,5.000
'0:07.904',4.870,5.005
'0:07.908',4.860,4.995
'0:07.912',4.850,4.995
'0:07.916',4.860,5.015
'0:07.920',4.880,5.005
'0:07.924',4.865,4.990
'0:07.928',4.845,4.990
'0:07.932',4.850,4.995
'0:07.936',4.850,5.000
'0:07.940',4.850,4.990
'0:07.944',4.840,4.995
'0:07.948',4.860,5.010
'0:07.952',4.860,5.015
'0:07.956',4.855,5.005
'0:07.960',4.845,4.990
'0:07.964',4.845,4.990
'0:07.968',4.855,4.990
'0:07.972',4.840,4.980
'0:07.976',4.830,4.975
'0:07.980',4.830,4.995
'0:07.984',4.855,5.000
'0:07.988',4.830,4.985
'0:07.992',4.815,4.985
'0:07.996',4.810,4.985
'0:08.000',4.820,4.990
'0:08.004',4.825,4.985
'0:08.008',4.805,4.970
'0:08.012',4.795,4.975
'0:08.016',4.825,4.985
'0:08.020',4.825,4.980
'0:08.024',4.815,4.955
'0:08.028',4.810,4.950
'0:08.032',4.825,4.965
'0:08.036',4.820,4.975
'0:08.040',4.820,4.960
'0:08.044',4.810,4.960
'0:08.048',4.815,4.980
'0:08.052',4.825,4.975
'0:08.056',4.815,4.990
'0:08.060',4.805,4.980
'0:08.064',4.820,4.985
'0:08.068',4.825,4.990
'0:08.072',4.830,4.975
'0:08.076',4.825,4.980
'0:08.080',4.820,4.985
'0:08.084',4.835,4.990
'0:08.088',4.830,4.975
'0:08.092',4.830,4.970
'0:08.096',4.850,4.970
'0:08.100',4.855,4.980
'0:08.104',4.875,4.970
'0:08.108',4.875,4.965
'0:08.112',4.875,4.965
'0:08.116',4.895,4.980
'0:08.120',4.920,4.990
'0:08.124',4.905,4.980
'0:08.128',4.905,4.995
'0:08.132',4.920,5.010
'0:08.136',4.935,5.010
'0:08.140',4.940,5.005
'0:08.144',4.935,5.000
'0:08.148',4.935,5.020
'0:08.152',4.935,5.020
'0:08.156',4.930,5.025
'0:08.160',4.930,5.025
'0:08.164',4.945,5.055
'0:08.168',4.970,5.040
'0:08.172',4.975,5.015
'0:08.176',4.915,5.005
'0:08.180',4.890,5.005
'0:08.184',4.885,5.005
'0:08.188',4.860,5.000
'0:08.192',4.825,4.985
'0:08.196',4.800,4.985
'0:08.200',4.800,4.990
'0:08.204',4.810,4.995
'0:08.208',4.805,4.980
'0:08.212',4.810,4.970
'0:08.216',4.815,4.985
'0:08.220',4.805,4.990
'0:08.224',4.790,4.970
'0:08.228',4.780,4.965
'0:08.232',4.795,4.980
'0:08.236',4.800,4.985
'0:08.240',4.795,4.975
'0:08.244',4.785,4.975
'0:08.248',4.790,4.980
'0:08.252',4.800,4.970
'0:08.256',4.785,4.965
'0:08.260',4.780,4.955
'0:08.264',4.780,4.955
'0:08.268',4.770,4.930
'0:08.272',4.715,4.905
'0:08.276',4.675,4.850
'0:08.280',4.635,4.855
'0:08.284',4.590,4.960
'0:08.288',4.625,5.085
'0:08.292',4.765,5.165
'0:08.296',4.970,5.270
'0:08.300',5.045,5.310
'0:08.304',5.660,5.560
'0:08.308',5.925,5.600
'0:08.312',5.970,5.350
'0:08.316',5.735,4.960
'0:08.320',5.220,4.765
'0:08.324',4.795,4.800
'0:08.328',4.605,4.870
'0:08.332',4.615,4.900
'0:08.336',4.675,4.920
'0:08.340',4.730,4.915
'0:08.344',4.720,4.900
'0:08.348',4.725,4.915
'0:08.352',4.740,4.925
'0:08.356',4.750,4.915
'0:08.360',4.745,4.915
'0:08.364',4.755,4.935
'0:08.368',4.750,4.930
'0:08.372',4.760,4.915
'0:08.376',4.745,4.910
'0:08.380',4.740,4.930
'0:08.384',4.745,4.930
'0:08.388',4.750,4.920
'0:08.392',4.755,4.915
'0:08.396',4.750,4.920
'0:08.400',4.755,4.930
'0:08.404',4.760,4.940
'0:08.408',4.745,4.920
'0:08.412',4.730,4.920
'0:08.416',4.750,4.935
'0:08.420',4.755,4.930
'0:08.424',4.745,4.915
'0:08.428',4.740,4.935
'0:08.432',4.755,4.940
'0:08.436',4.760,4.950
'0:08.440',4.750,4.925
'0:08.444',4.740,4.925
'0:08.448',4.735,4.925
'0:08.452',4.735,4.930
'0:08.456',4.735,4.925
'0:08.460',4.730,4.920
'0:08.464',4.750,4.945
'0:08.468',4.755,4.940
'0:08.472',4.730,4.930
'0:08.476',4.740,4.920
'0:08.480',4.755,4.930
'0:08.484',4.765,4.940
'0:08.488',4.760,4.940
'0:08.492',4.750,4.915
'0:08.496',4.750,4.925
'0:08.500',4.745,4.930
'0:08.504',4.760,4.930
'0:08.508',4.755,4.910
'0:08.512',4.740,4.915
'0:08.516',4.755,4.920
'0:08.520',4.760,4.915
'0:08.524',4.740,4.900
'0:08.528',4.735,4.895
'0:08.532',4.760,4.905
'0:08.536',4.755,4.895
'0:08.540',4.750,4.870
'0:08.544',4.730,4.870
'0:08.548',4.725,4.870
'0:08.552',4.735,4.860
'0:08.556',4.715,4.840
'0:08.560',4.715,4.825
'0:08.564',4.705,4.840
'0:08.568',4.715,4.845
'0:08.572',4.710,4.825
'0:08.576',4.690,4.815
'0:08.580',4.680,4.825
'0:08.584',4.720,4.825
'0:08.588',4.710,4.835
'0:08.592',4.715,4.850
'0:08.596',4.710,4.865
'0:08.600',4.715,4.875
'0:08.604',4.755,4.890
'0:08.608',4.760,4.910
'0:08.612',4.770,4.920
'0:08.616',4.800,4.935
'0:08.620',4.815,4.950
'0:08.624',4.810,4.930
'0:08.628',4.800,4.955
'0:08.632',4.815,4.965
'0:08.636',4.830,4.970
'0:08.640',4.825,4.955
'0:08.644',4.815,4.950
'0:08.648',4.830,4.970
'0:08.652',4.830,4.980
'0:08.656',4.830,4.965
'0:08.660',4.825,4.955
'0:08.664',4.830,4.975
'0:08.668',4.835,4.975
'0:08.672',4.840,4.975
'0:08.676',4.830,4.960
'0:08.680',4.820,4.975
'0:08.684',4.840,4.970
'0:08.688',4.825,4.965
'0:08.692',4.820,4.940
'0:08.696',4.810,4.950
'0:08.700',4.815,4.965
'0:08.704',4.815,4.965
'0:08.708',4.810,4.945
'0:08.712',4.805,4.950
'0:08.716',4.810,4.945
'0:08.720',4.810,4.950
'0:08.724',4.785,4.935
'0:08.728',4.770,4.950
'0:08.732',4.790,4.970
'0:08.736',4.800,4.970
'0:08.740',4.800,4.955
'0:08.744',4.795,4.945
'0:08.748',4.775,4.965
'0:08.752',4.790,4.955
'0:08.756',4.780,4.950
'0:08.760',4.780,4.940
'0:08.764',4.795,4.945
'0:08.768',4.780,4.955
'0:08.772',4.775,4.950
'0:08.776',4.760,4.940
'0:08.780',4.775,4.950
'0:08.784',4.800,4.955
'0:08.788',4.790,4.950
'0:08.792',4.780,4.940
'0:08.796',4.770,4.965
'0:08.800',4.775,4.970
'0:08.804',4.775,4.945
'0:08.808',4.760,4.935
'0:08.812',4.760,4.940
'0:08.816',4.775,4.950
'0:08.820',4.765,4.955
'0:08.824',4.760,4.935
'0:08.828',4.750,4.940
'0:08.832',4.775,4.950
'0:08.836',4.785,4.960
'0:08.840',4.790,4.935
'0:08.844',4.765,4.920
'0:08.848',4.765,4.935
'0:08.852',4.780,4.940
'0:08.856',4.780,4.935
'0:08.860',4.765,4.935
'0:08.864',4.770,4.950
'0:08.868',4.795,4.945
'0:08.872',4.805,4.940
'0:08.876',4.795,4.920
'0:08.880',4.815,4.935
'0:08.884',4.835,4.950
'0:08.888',4.845,4.935
'0:08.892',4.845,4.930
'0:08.896',4.840,4.960
'0:08.900',4.850,4.965
'0:08.904',4.890,4.980
'0:08.908',4.880,4.970
'0:08.912',4.880,4.965
'0:08.916',4.890,4.960
'0:08.920',4.890,4.955
'0:08.924',4.850,4.955
'0:08.928',4.835,4.970
'0:08.932',4.870,4.980
'0:08.936',4.885,4.990
'0:08.940',4.865,4.975
'0:08.944',4.855,4.980
'0:08.948',4.870,4.990
'0:08.952',4.875,4.975
'0:08.956',4.845,4.950
'0:08.960',4.815,4.940
'0:08.964',4.790,4.950
'0:08.968',4.785,4.950
'0:08.972',4.755,4.935
'0:08.976',4.730,4.930
'0:08.980',4.725,4.940
'0:08.984',4.745,4.935
'0:08.988',4.735,4.930
'0:08.992',4.720,4.915
'0:08.996',4.710,4.925
'0:09.000',4.715,4.930
'0:09.004',4.725,4.925
'0:09.008',4.720,4.915
'0:09.012',4.710,4.930
'0:09.016',4.725,4.930
'0:09.020',4.730,4.930
'0:09.024',4.710,4.920
'0:09.028',4.710,4.925
'0:09.032',4.715,4.930
'0:09.036',4.715,4.925
'0:09.040',4.700,4.885
'0:09.044',4.635,4.860
'0:09.048',4.605,4.835
'0:09.052',4.575,4.840
'0:09.056',4.525,4.915
'0:09.060',4.580,5.040
'0:09.064',4.755,5.140
'0:09.068',4.965,5.215
'0:09.072',5.255,5.330
'0:09.076',5.615,5.470
'0:09.080',5.885,5.540
'0:09.084',5.940,5.285
'0:09.088',5.600,4.880
'0:09.092',5.025,4.735
'0:09.096',4.635,4.820
'0:09.100',4.570,4.855
'0:09.104',4.595,4.905
'0:09.108',4.645,4.890
'0:09.112',4.660,4.885
'0:09.116',4.670,4.905
'0:09.120',4.690,4.905
'0:09.124',4.670,4.895
'0:09.128',4.675,4.895
'0:09.132',4.680,4.915
'0:09.136',4.690,4.910
'0:09.140',4.680,4.895
'0:09.144',4.670,4.900
'0:09.148',4.675,4.910
'0:09.152',4.680,4.915
'0:09.156',4.665,4.910
'0:09.160',4.650,4.900
'0:09.164',4.675,4.920
'0:09.168',4.680,4.925
'0:09.172',4.675,4.930
'0:09.176',4.665,4.920
'0:09.180',4.675,4.930
'0:09.184',4.685,4.935
'0:09.188',4.680,4.925
'0:09.192',4.665,4.915
'0:09.196',4.665,4.930
'0:09.200',4.675,4.940
'0:09.204',4.680,4.940
'0:09.208',4.670,4.920
'0:09.212',4.665,4.920
'0:09.216',4.675,4.945
'0:09.220',4.685,4.935
'0:09.224',4.680,4.935
'0:09.228',4.670,4.930
'0:09.232',4.690,4.945
'0:09.236',4.695,4.940
'0:09.240',4.680,4.930
'0:09.244',4.675,4.920
'0:09.248',4.680,4.935
'0:09.252',4.695,4.935
'0:09.256',4.695,4.925
'0:09.260',4.695,4.920
'0:09.264',4.700,4.945
'0:09.268',4.705,4.945
'0:09.272',4.695,4.930
'0:09.276',4.680,4.915
'0:09.280',4.690,4.920
'0:09.284',4.695,4.925
'0:09.288',4.695,4.910
'0:09.292',4.685,4.885
'0:09.296',4.700,4.890
'0:09.300',4.695,4.880
'0:09.304',4.710,4.875
'0:09.308',4.700,4.865
'0:09.312',4.675,4.860
'0:09.316',4.690,4.865
'0:09.320',4.680,4.850
'0:09.324',4.665,4.840
'0:09.328',4.650,4.815
'0:09.332',4.655,4.820
'0:09.336',4.660,4.820
'0:09.340',4.640,4.800
'0:09.344',4.620,4.795
'0:09.348',4.635,4.795
'0:09.352',4.630,4.800
'0:09.356',4.620,4.790
'0:09.360',4.625,4.795
'0:09.364',4.630,4.820
'0:09.368',4.635,4.840
'0:09.372',4.660,4.840
'0:09.376',4.665,4.850
'0:09.380',4.700,4.885
'0:09.384',4.725,4.915
'0:09.388',4.740,4.915
'0:09.392',4.745,4.910
'0:09.396',4.760,4.935
'0:09.400',4.770,4.950
'0:09.404',4.800,4.960
'0:09.408',4.795,4.950
'0:09.412',4.790,4.950
'0:09.416',4.805,4.965
'0:09.420',4.805,4.975
'0:09.424',4.805,4.960
'0:09.428',4.800,4.955
'0:09.432',4.810,4.970
'0:09.436',4.820,4.965
'0:09.440',4.815,4.955
'0:09.444',4.800,4.965
'0:09.448',4.810,4.980
'0:09.452',4.825,4.970
'0:09.456',4.820,4.945
'0:09.460',4.810,4.950
'0:09.464',4.815,4.975
'0:09.468',4.825,4.975
'0:09.472',4.820,4.965
'0:09.476',4.800,4.950
'0:09.480',4.805,4.960
'0:09.484',4.820,4.970
'0:09.488',4.810,4.965
'0:09.492',4.800,4.950
'0:09.496',4.795,4.965
'0:09.500',4.800,4.970
'0:09.504',4.810,4.960
'0:09.508',4.800,4.940
'0:09.512',4.780,4.955
'0:09.516',4.805,4.970
'0:09.520',4.800,4.960
'0:09.524',4.785,4.945
'0:09.528',4.785,4.955
'0:09.532',4.800,4.970
'0:09.536',4.805,4.975
'0:09.540',4.790,4.950
'0:09.544',4.780,4.945
'0:09.548',4.800,4.955
'0:09.552',4.800,4.970
'0:09.556',4.795,4.960
'0:09.560',4.790,4.950
'0:09.564',4.795,4.960
'0:09.568',4.805,4.970
'0:09.572',4.795,4.965
'0:09.576',4.775,4.965
'0:09.580',4.785,4.970
'0:09.584',4.795,4.980
'0:09.588',4.790,4.965
'0:09.592',4.780,4.955
'0:09.596',4.780,4.970
'0:09.600',4.775,4.980
'0:09.604',4.790,4.980
'0:09.608',4.790,4.960
'0:09.612',4.780,4.965
'0:09.616',4.815,4.980
'0:09.620',4.820,4.975
'0:09.624',4.820,4.960
'0:09.628',4.825,4.970
'0:09.632',4.850,4.980
'0:09.636',4.860,4.980
'0:09.640',4.865,4.970
'0:09.644',4.860,4.975
'0:09.648',4.870,4.985
'0:09.652',4.875,5.000
'0:09.656',4.880,4.990
'0:09.660',4.880,4.985
'0:09.664',4.905,5.005
'0:09.668',4.925,5.020
'0:09.672',4.930,5.025
'0:09.676',4.910,5.020
'0:09.680',4.910,5.030
'0:09.684',4.915,5.045
'0:09.688',4.925,5.045
'0:09.692',4.915,5.040
'0:09.696',4.905,5.055
'0:09.700',4.905,5.060
'0:09.704',4.940,5.030
'0:09.708',4.890,5.015
'0:09.712',4.845,5.020
'0:09.716',4.855,5.025
'0:09.720',4.835,5.015
'0:09.724',4.805,5.000
'0:09.728',4.780,4.995
'0:09.732',4.790,5.015
'0:09.736',4.795,5.015
'0:09.740',4.800,5.000
'0:09.744',4.775,4.990
'0:09.748',4.780,4.995
'0:09.752',4.780,4.995
'0:09.756',4.770,4.990
'0:09.760',4.750,4.985
'0:09.764',4.765,5.010
'0:09.768',4.775,5.005
'0:09.772',4.765,5.000
'0:09.776',4.755,4.980
'0:09.780',4.760,5.000
'0:09.784',4.760,5.000
'0:09.788',4.765,4.985
'0:09.792',4.750,4.955
'0:09.796',4.710,4.935
'0:09.800',4.690,4.935
'0:09.804',4.635,4.890
'0:09.808',4.575,4.925
'0:09.812',4.565,5.070
'0:09.816',4.710,5.225
'0:09.820',4.920,5.345
'0:09.824',5.180,5.450
'0:09.828',5.560,5.605
'0:09.832',5.870,5.650
'0:09.836',5.950,5.405
'0:09.840',5.610,5.010
'0:09.844',4.990,4.885
'0:09.848',4.610,4.925
'0:09.852',4.580,4.955
'0:09.856',4.665,4.960
'0:09.860',4.695,4.950
'0:09.864',4.705,4.970
'0:09.868',4.715,4.975
'0:09.872',4.725,4.955
'0:09.876',4.715,4.945
'0:09.880',4.710,4.955
'0:09.884',4.725,4.965
'0:09.888',4.725,4.960
'0:09.892',4.710,4.955
'0:09.896',4.705,4.960
'0:09.900',4.715,4.955
'0:09.904',4.715,4.965
'0:09.908',4.710,4.955
'0:09.912',4.705,4.965
'0:09.916',4.715,4.980
'0:09.920',4.720,4.970
'0:09.924',4.710,4.960
'0:09.928',4.710,4.955
'0:09.932',4.725,4.975
'0:09.936',4.730,4.975
'0:09.940',4.725,4.965
'0:09.944',4.715,4.965
'0:09.948',4.720,4.970
'0:09.952',4.720,4.980
'0:09.956',4.710,4.970
'0:09.960',4.715,4.960
'0:09.964',4.705,4.965
'0:09.968',4.725,4.970
'0:09.972',4.725,4.960
'0:09.976',4.720,4.960
'0:09.980',4.720,4.960
'0:09.984',4.725,4.975
'0:09.988',4.730,4.960
'0:09.992',4.715,4.950
'0:09.996',4.715,4.955
'0:10.000',4.725,4.970
'0:10.004',4.730,4.965
'0:10.008',4.735,4.945
'0:10.012',4.730,4.945
'0:10.016',4.740,4.955
'0:10.020',4.750,4.965
'0:10.024',4.735,4.945
'0:10.028',4.745,4.935
'0:10.032',4.740,4.940
'0:10.036',4.750,4.925
'0:10.040',4.745,4.910
'0:10.044',4.730,4.905
'0:10.048',4.735,4.910
'0:10.052',4.740,4.905
'0:10.056',4.750,4.885
'0:10.060',4.725,4.875
'0:10.064',4.725,4.880
'0:10.068',4.745,4.885
'0:10.072',4.730,4.875
'0:10.076',4.725,4.865
'0:10.080',4.730,4.865
'0:10.084',4.745,4.875
'0:10.088',4.745,4.865
'0:10.092',4.735,4.850
'0:10.096',4.725,4.865
'0:10.100',4.740,4.865
'0:10.104',4.735,4.870
'0:10.108',4.730,4.870
'0:10.112',4.720,4.875
'0:10.116',4.750,4.905
'0:10.120',4.755,4.920
'0:10.124',4.755,4.920
'0:10.128',4.765,4.925
'0:10.132',4.790,4.960
'0:10.136',4.795,4.970
'0:10.140',4.805,4.970
'0:10.144',4.810,4.980
'0:10.148',4.830,5.005
'0:10.152',4.845,4.990
'0:10.156',4.845,4.995
'0:10.160',4.835,4.985
'0:10.164',4.850,5.015
'0:10.168',4.860,5.020
'0:10.172',4.855,5.015
'0:10.176',4.850,4.985
'0:10.180',4.850,5.000
'0:10.184',4.865,5.015
'0:10.188',4.860,5.010
'0:10.192',4.840,4.995
'0:10.196',4.835,4.995
'0:10.200',4.840,5.005
'0:10.204',4.855,5.010
'0:10.208',4.840,5.005
'0:10.212',4.830,5.000
'0:10.216',4.845,5.010
'0:10.220',4.845,5.015
'0:10.224',4.835,4.995
'0:10.228',4.820,5.015
'0:10.232',4.835,5.015
'0:10.236',4.840,5.020
'0:10.240',4.835,5.005
'0:10.244',4.830,4.995
'0:10.248',4.830,5.000
'0:10.252',4.835,5.010
'0:10.256',4.840,4.995
'0:10.260',4.825,4.995
'0:10.264',4.825,5.000
'0:10.268',4.830,5.005
'0:10.272',4.825,5.000
'0:10.276',4.815,4.980
'0:10.280',4.815,4.995
'0:10.284',4.820,5.010
'0:10.288',4.830,4.995
'0:10.292',4.820,4.985
'0:10.296',4.810,4.990
'0:10.300',4.810,4.995
'0:10.304',4.825,5.010
'0:10.308',4.815,4.995
'0:10.312',4.805,4.990
'0:10.316',4.810,5.005
'0:10.320',4.825,5.005
'0:10.324',4.815,4.995
'0:10.328',4.800,5.000
'0:10.332',4.820,5.000
'0:10.336',4.820,5.005
'0:10.340',4.815,5.005
'0:10.344',4.790,4.995
'0:10.348',4.815,5.015
'0:10.352',4.830,5.015
'0:10.356',4.840,4.995
'0:10.360',4.830,4.990
'0:10.364',4.845,5.005
'0:10.368',4.875,5.005
'0:10.372',4.880,5.010
'0:10.376',4.880,5.000
'0:10.380',4.895,5.010
'0:10.384',4.915,5.020
'0:10.388',4.915,5.025
'0:10.392',4.915,5.025
'0:10.396',4.925,5.030
'0:10.400',4.935,5.045
'0:10.404',4.950,5.035
'0:10.408',4.935,5.030
'0:10.412',4.930,5.045
'0:10.416',4.920,5.070
'0:10.420',4.925,5.065
'0:10.424',4.925,5.060
'0:10.428',4.925,5.075
'0:10.432',4.955,5.075
'0:10.436',4.955,5.060
'0:10.440',4.910,5.040
'0:10.444',4.870,5.030
'0:10.448',4.870,5.045
'0:10.452',4.860,5.050
'0:10.456',4.835,5.030
'0:10.460',4.805,5.015
'0:10.464',4.800,5.025
'0:10.468',4.820,5.025
'0:10.472',4.820,5.030
'0:10.476',4.805,5.015
'0:10.480',4.795,5.025
'0:10.484',4.810,5.030
'0:10.488',4.800,5.025
'0:10.492',4.800,5.010
'0:10.496',4.790,5.020
'0:10.500',4.795,5.015
'0:10.504',4.790,5.030
'0:10.508',4.780,5.020
'0:10.512',4.770,5.015
'0:10.516',4.785,5.025
'0:10.520',4.795,5.020
'0:10.524',4.785,5.015
'0:10.528',4.770,5.010
'0:10.532',4.780,5.005
'0:10.536',4.775,4.980
'0:10.540',4.715,4.940
'0:10.544',4.665,4.910
'0:10.548',4.650,4.915
'0:10.552',4.600,4.995
'0:10.556',4.605,5.095
'0:10.560',4.735,5.205
'0:10.564',4.930,5.325
'0:10.568',5.200,5.465
'0:10.572',5.570,5.585
'0:10.576',5.840,5.600
'0:10.580',5.890,5.385
'0:10.584',5.560,5.045
'0:10.588',4.980,4.905
'0:10.592',4.600,4.930
'0:10.596',4.580,4.960
'0:10.600',4.605,4.970
'0:10.604',4.725,4.985
'0:10.608',4.735,4.970
'0:10.612',4.720,4.965
'0:10.616',4.740,4.975
'0:10.620',4.750,4.970
'0:10.624',4.740,4.965
'0:10.628',4.725,4.970
'0:10.632',4.740,4.975
'0:10.636',4.740,4.985
'0:10.640',4.740,4.965
'0:10.644',4.725,4.960
'0:10.648',4.730,4.980
'0:10.652',4.745,4.975
'0:10.656',4.730,4.975
'0:10.660',4.725,4.970
'0:10.664',4.725,4.980
'0:10.668',4.735,4.985
'0:10.672',4.735,4.975
'0:10.676',4.720,4.975
'0:10.680',4.725,4.980
'0:10.684',4.745,4.990
'0:10.688',4.740,4.980
'0:10.692',4.745,4.960
'0:10.696',4.745,4.975
'0:10.700',4.755,4.985
'0:10.704',4.745,4.975
'0:10.708',4.750,4.975
'0:10.712',4.735,4.975
'0:10.716',4.745,4.985
'0:10.720',4.750,4.990
'0:10.724',4.740,4.970
'0:10.728',4.740,4.955
'0:10.732',4.745,4.975
'0:10.736',4.750,4.975
'0:10.740',4.750,4.965
'0:10.744',4.740,4.955
'0:10.748',4.735,4.965
'0:10.752',4.740,4.980
'0:10.756',4.755,4.955
'0:10.760',4.755,4.950
'0:10.764',4.760,4.955
'0:10.768',4.770,4.955
'0:10.772',4.770,4.945
'0:10.776',4.755,4.935
'0:10.780',4.755,4.935
'0:10.784',4.770,4.950
'0:10.788',4.750,4.930
'0:10.792',4.745,4.915
'0:10.796',4.750,4.915
'0:10.800',4.755,4.925
'0:10.804',4.765,4.910
'0:10.808',4.745,4.900
'0:10.812',4.735,4.890
'0:10.816',4.750,4.900
'0:10.820',4.755,4.885
'0:10.824',4.755,4.875
'0:10.828',4.735,4.860
'0:10.832',4.740,4.875
'0:10.836',4.755,4.875
'0:10.840',4.750,4.870
'0:10.844',4.735,4.870
'0:10.848',4.755,4.900
'0:10.852',4.760,4.910
'0:10.856',4.755,4.910
'0:10.860',4.760,4.910
'0:10.864',4.770,4.935
'0:10.868',4.795,4.960
'0:10.872',4.805,4.965
'0:10.876',4.800,4.950
'0:10.880',4.790,4.960
'0:10.884',4.820,4.975
'0:10.888',4.830,4.980
'0:10.892',4.830,4.980
'0:10.896',4.815,4.980
'0:10.900',4.820,4.985
'0:10.904',4.840,5.000
'0:10.908',4.845,4.990
'0:10.912',4.850,5.000
'0:10.916',4.855,5.000
'0:10.920',4.850,5.000
'0:10.924',4.840,4.985
'0:10.928',4.845,4.985
'0:10.932',4.845,4.995
'0:10.936',4.850,5.000
'0:10.940',4.850,4.990
'0:10.944',4.840,4.985
'0:10.948',4.840,4.995
'0:10.952',4.855,4.995
'0:10.956',4.845,4.975
'0:10.960',4.815,4.970
'0:10.964',4.830,4.985
'0:10.968',4.830,4.995
'0:10.972',4.835,4.990
'0:10.976',4.820,4.975
'0:10.980',4.820,4.985
'0:10.984',4.835,5.005
'0:10.988',4.825,4.995
'0:10.992',4.825,4.965
'0:10.996',4.810,4.975
'0:11.000',4.815,4.980
'0:11.004',4.820,4.985
'0:11.008',4.825,4.965
'0:11.012',4.815,4.970
'0:11.016',4.815,4.980
'0:11.020',4.815,4.975
'0:11.024',4.800,4.955
'0:11.028',4.785,4.955
'0:11.032',4.790,4.980
'0:11.036',4.805,4.990
'0:11.040',4.800,4.970
'0:11.044',4.790,4.965
'0:11.048',4.785,4.960
'0:11.052',4.800,4.970
'0:11.056',4.800,4.965
'0:11.060',4.795,4.945
'0:11.064',4.795,4.960
'0:11.068',4.805,4.960
'0:11.072',4.790,4.960
'0:11.076',4.780,4.945
'0:11.080',4.780,4.960
'0:11.084',4.800,4.965
'0:11.088',4.800,4.965
'0:11.092',4.790,4.950
'0:11.096',4.790,4.955
'0:11.100',4.790,4.960
'0:11.104',4.780,4.975
'0:11.108',4.780,4.965
'0:11.112',4.785,4.960
'0:11.116',4.795,4.980
'0:11.120',4.800,4.965
'0:11.124',4.795,4.950
'0:11.128',4.785,4.960
'0:11.132',4.820,4.980
'0:11.136',4.830,4.970
'0:11.140',4.840,4.960
'0:11.144',4.835,4.960
'0:11.148',4.860,4.960
'0:11.152',4.870,4.970
'0:11.156',4.875,4.975
'0:11.160',4.875,4.970
'0:11.164',4.885,4.995
'0:11.168',4.905,4.995
'0:11.172',4.920,4.995
'0:11.176',4.920,4.985
'0:11.180',4.915,4.985
'0:11.184',4.920,5.000
'0:11.188',4.900,4.995
'0:11.192',4.895,4.980
'0:11.196',4.890,5.005
'0:11.200',4.895,5.015
'0:11.204',4.910,5.015
'0:11.208',4.915,5.000
'0:11.212',4.910,4.980
'0:11.216',4.880,4.985
'0:11.220',4.855,4.985
'0:11.224',4.835,4.980
'0:11.228',4.810,4.970
'0:11.232',4.805,4.975
'0:11.236',4.795,4.970
'0:11.240',4.775,4.955
'0:11.244',4.770,4.960
'0:11.248',4.770,4.965
'0:11.252',4.780,4.970
'0:11.256',4.770,4.935
'0:11.260',4.750,4.935
'0:11.264',4.750,4.960
'0:11.268',4.760,4.960
'0:11.272',4.755,4.955
'0:11.276',4.740,4.940
'0:11.280',4.740,4.950
'0:11.284',4.755,4.955
'0:11.288',4.755,4.950
'0:11.292',4.745,4.935
'0:11.296',4.755,4.935
'0:11.300',4.750,4.940
'0:11.304',4.745,4.920
'0:11.308',4.705,4.900
'0:11.312',4.660,4.895
'0:11.316',4.660,4.875
'0:11.320',4.640,4.845
'0:11.324',4.550,4.830
'0:11.328',4.490,4.865
'0:11.332',4.535,4.960
'0:11.336',4.635,5.050
'0:11.340',4.740,5.100
'0:11.344',4.835,5.155
'0:11.348',5.000,5.230
'0:11.352',5.285,5.340
'0:11.356',5.635,5.440
'0:11.360',5.860,5.435
'0:11.364',5.910,5.245
'0:11.368',5.610,4.975
'0:11.372',5.095,4.840
'0:11.376',4.715,4.845
'0:11.380',4.595,4.890
'0:11.384',4.630,4.920
'0:11.388',4.690,4.920
'0:11.392',4.705,4.910
'0:11.396',4.695,4.920
'0:11.400',4.700,4.920
'0:11.404',4.735,4.945
'0:11.408',4.730,4.915
'0:11.412',4.720,4.925
'0:11.416',4.725,4.925
'0:11.420',4.730,4.930
'0:11.424',4.725,4.915
'0:11.428',4.705,4.925
'0:11.432',4.710,4.930
'0:11.436',4.710,4.935
'0:11.440',4.705,4.930
'0:11.444',4.705,4.920
'0:11.448',4.715,4.925
'0:11.452',4.735,4.935
'0:11.456',4.720,4.930
'0:11.460',4.710,4.925
'0:11.464',4.710,4.925
'0:11.468',4.720,4.935
'0:11.472',4.730,4.940
'0:11.476',4.715,4.920
'0:11.480',4.715,4.930
'0:11.484',4.715,4.945
'0:11.488',4.715,4.930
'0:11.492',4.700,4.915
'0:11.496',4.695,4.925
'0:11.500',4.705,4.930
'0:11.504',4.705,4.935
'0:11.508',4.710,4.940
'0:11.512',4.705,4.935
'0:11.516',4.720,4.940
'0:11.520',4.725,4.935
'0:11.524',4.720,4.925
'0:11.528',4.695,4.925
'0:11.532',4.715,4.950
'0:11.536',4.720,4.950
'0:11.540',4.730,4.930
'0:11.544',4.730,4.930
'0:11.548',4.735,4.940
'0:11.552',4.740,4.945
'0:11.556',4.730,4.925
'0:11.560',4.705,4.925
'0:11.564',4.715,4.925
'0:11.568',4.720,4.935
'0:11.572',4.725,4.915
'0:11.576',4.715,4.900
'0:11.580',4.710,4.900
'0:11.584',4.720,4.905
'0:11.588',4.720,4.900
'0:11.592',4.705,4.875
'0:11.596',4.695,4.875
'0:11.600',4.700,4.880
'0:11.604',4.715,4.875
'0:11.608',4.695,4.865
'0:11.612',4.670,4.850
'0:11.616',4.670,4.860
'0:11.620',4.670,4.855
'0:11.624',4.665,4.830
'0:11.628',4.665,4.825
'0:11.632',4.665,4.840
'0:11.636',4.670,4.835
'0:11.640',4.660,4.840
'0:11.644',4.655,4.845
'0:11.648',4.680,4.860
'0:11.652',4.705,4.875
'0:11.656',4.725,4.890
'0:11.660',4.725,4.880
'0:11.664',4.740,4.905
'0:11.668',4.770,4.910
'0:11.672',4.780,4.900
'0:11.676',4.775,4.905
'0:11.680',4.790,4.935
'0:11.684',4.800,4.950
'0:11.688',4.795,4.945
'0:11.692',4.800,4.935
'0:11.696',4.790,4.950
'0:11.700',4.795,4.950
'0:11.704',4.820,4.955
'0:11.708',4.820,4.945
'0:11.712',4.810,4.945
'0:11.716',4.815,4.970
'0:11.720',4.830,4.960
'0:11.724',4.820,4.960
'0:11.728',4.825,4.955
'0:11.732',4.840,4.965
'0:11.736',4.850,4.960
'0:11.740',4.835,4.950
'0:11.744',4.820,4.940
'0:11.748',4.815,4.945
'0:11.752',4.815,4.950
'0:11.756',4.835,4.945
'0:11.760',4.810,4.950
'0:11.764',4.820,4.950
'0:11.768',4.810,4.960
'0:11.772',4.815,4.960
'0:11.776',4.825,4.940
'0:11.780',4.830,4.940
'0:11.784',4.840,4.950
'0:11.788',4.825,4.935
'0:11.792',4.800,4.915
'0:11.796',4.790,4.935
'0:11.800',4.800,4.940
'0:11.804',4.815,4.935
'0:11.808',4.805,4.925
'0:11.812',4.795,4.925
'0:11.816',4.800,4.935
'0:11.820',4.805,4.930
'0:11.824',4.800,4.925
'0:11.828',4.785,4.925
'0:11.832',4.795,4.930
'0:11.836',4.800,4.935
'0:11.840',4.790,4.925
'0:11.844',4.775,4.905
'0:11.848',4.780,4.915
'0:11.852',4.785,4.930
'0:11.856',4.785,4.910
'0:11.860',4.760,4.910
'0:11.864',4.780,4.910
'0:11.868',4.785,4.915
'0:11.872',4.790,4.915
'0:11.876',4.775,4.900
'0:11.880',4.775,4.915
'0:11.884',4.785,4.930
'0:11.888',4.790,4.920
'0:11.892',4.780,4.900
'0:11.896',4.770,4.910
'0:11.900',4.780,4.920
'0:11.904',4.790,4.915
'0:11.908',4.780,4.915
'0:11.912',4.765,4.905
'0:11.916',4.780,4.920
'0:11.920',4.795,4.920
'0:11.924',4.785,4.910
'0:11.928',4.765,4.910
'0:11.932',4.775,4.915
'0:11.936',4.785,4.920
'0:11.940',4.785,4.905
'0:11.944',4.790,4.890
'0:11.948',4.805,4.910
'0:11.952',4.815,4.920
'0:11.956',4.830,4.915
'0:11.960',4.830,4.895
'0:11.964',4.845,4.905
'0:11.968',4.860,4.920
'0:11.972',4.870,4.910
'0:11.976',4.875,4.910
'0:11.980',4.885,4.925
'0:11.984',4.905,4.945
'0:11.988',4.910,4.935
'0:11.992',4.900,4.925
'0:11.996',4.890,4.925
'0:12.000',4.895,4.935
'0:12.004',4.895,4.940
'0:12.008',4.880,4.940
'0:12.012',4.880,4.930
'0:12.016',4.900,4.945
'0:12.020',4.900,4.950
'0:12.024',4.890,4.935
'0:12.028',4.875,4.940
'0:12.032',4.895,4.970
'0:12.036',4.905,4.980
'0:12.040',4.910,4.955
'0:12.044',4.905,4.955
'0:12.048',4.870,4.945
'0:12.052',4.865,4.945
'0:12.056',4.845,4.940
'0:12.060',4.815,4.920
'0:12.064',4.775,4.930
'0:12.068',4.785,4.940
'0:12.072',4.775,4.915
'0:12.076',4.760,4.905
'0:12.080',4.760,4.920
'0:12.084',4.765,4.940
'0:12.088',4.775,4.925
'0:12.092',4.755,4.905
'0:12.096',4.750,4.910
'0:12.100',4.755,4.915
'0:12.104',4.770,4.925
'0:12.108',4.765,4.915
'0:12.112',4.745,4.920
'0:12.116',4.760,4.915
'0:12.120',4.780,4.925
'0:12.124',4.770,4.915
'0:12.128',4.765,4.915
'0:12.132',4.760,4.930
'0:12.136',4.765,4.915
'0:12.140',4.730,4.875
'0:12.144',4.685,4.850
'0:12.148',4.650,4.845
'0:12.152',4.635,4.840
'0:12.156',4.580,4.880
'0:12.160',4.585,4.985
'0:12.164',4.720,5.075
'0:12.168',4.880,5.135
'0:12.172',5.085,5.200
'0:12.176',5.395,5.295
'0:12.180',5.720,5.405
'0:12.184',5.910,5.490
'0:12.188',6.010,5.400
'0:12.192',5.905,5.105
'0:12.196',5.445,4.840
'0:12.200',5.275,4.785
'0:12.204',4.660,4.820
'0:12.208',4.580,4.835
'0:12.212',4.630,4.850
'0:12.216',4.715,4.875
'0:12.220',4.725,4.875
'0:12.224',4.720,4.870
'0:12.228',4.710,4.870
'0:12.232',4.735,4.880
'0:12.236',4.740,4.875
'0:12.240',4.735,4.870
'0:12.244',4.730,4.865
'0:12.248',4.735,4.870
'0:12.252',4.745,4.880
'0:12.256',4.745,4.880
'0:12.260',4.720,4.875
'0:12.264',4.740,4.880
'0:12.268',4.745,4.890
'0:12.272',4.750,4.880
'0:12.276',4.735,4.890
'0:12.280',4.740,4.880
'0:12.284',4.750,4.900
'0:12.288',4.750,4.880
'0:12.292',4.735,4.880
'0:12.296',4.730,4.890
'0:12.300',4.740,4.895
'0:12.304',4.735,4.895
'0:12.308',4.740,4.895
'0:12.312',4.735,4.895
'0:12.316',4.745,4.910
'0:12.320',4.760,4.910
'0:12.324',4.760,4.900
'0:12.328',4.740,4.885
'0:12.332',4.760,4.910
'0:12.336',4.755,4.900
'0:12.340',4.760,4.890
'0:12.344',4.750,4.890
'0:12.348',4.750,4.905
'0:12.352',4.775,4.915
'0:12.356',4.770,4.900
'0:12.360',4.765,4.890
'0:12.364',4.770,4.885
'0:12.368',4.765,4.910
'0:12.372',4.775,4.895
'0:12.376',4.755,4.885
'0:12.380',4.755,4.895
'0:12.384',4.765,4.910
'0:12.388',4.760,4.890
'0:12.392',4.750,4.870
'0:12.396',4.750,4.865
'0:12.400',4.755,4.870
'0:12.404',4.765,4.870
'0:12.408',4.755,4.855
'0:12.412',4.745,4.835
'0:12.416',4.760,4.850
'0:12.420',4.760,4.855
'0:12.424',4.750,4.830
'0:12.428',4.730,4.810
'0:12.432',4.740,4.810
'0:12.436',4.750,4.810
'0:12.440',4.735,4.795
'0:12.444',4.715,4.780
'0:12.448',4.715,4.795
'0:12.452',4.720,4.800
'0:12.456',4.725,4.785
'0:12.460',4.705,4.775
'0:12.464',4.700,4.795
'0:12.468',4.720,4.810
'0:12.472',4.735,4.810
'0:12.476',4.740,4.810
'0:12.480',4.750,4.835
'0:12.484',4.775,4.865
'0:12.488',4.795,4.870
'0:12.492',4.805,4.855
'0:12.496',4.815,4.885
'0:12.500',4.825,4.890
'0:12.504',4.855,4.910
'0:12.508',4.855,4.905
'0:12.512',4.855,4.905
'0:12.516',4.880,4.945
'0:12.520',4.885,4.940
'0:12.524',4.875,4.935
'0:12.528',4.870,4.925
'0:12.532',4.880,4.935
'0:12.536',4.890,4.945
'0:12.540',4.875,4.935
'0:12.544',4.870,4.925
'0:12.548',4.875,4.935
'0:12.552',4.890,4.955
'0:12.556',4.905,4.940
'0:12.560',4.880,4.935
'0:12.564',4.890,4.925
'0:12.568',4.895,4.945
'0:12.572',4.900,4.935
'0:12.576',4.900,4.930
'0:12.580',4.880,4.935
'0:12.584',4.905,4.955
'0:12.588',4.895,4.935
'0:12.592',4.900,4.930
'0:12.596',4.880,4.930
'0:12.600',4.885,4.930
'0:12.604',4.885,4.940
'0:12.608',4.880,4.935
'0:12.612',4.865,4.920
'0:12.616',4.870,4.930
'0:12.620',4.890,4.935
'0:12.624',4.880,4.930
'0:12.628',4.870,4.925
'0:12.632',4.875,4.925
'0:12.636',4.885,4.930
'0:12.640',4.880,4.920
'0:12.644',4.875,4.905
'0:12.648',4.875,4.930
'0:12.652',4.890,4.930
'0:12.656',4.885,4.925
'0:12.660',4.880,4.910
'0:12.664',4.875,4.915
'0:12.668',4.885,4.925
'0:12.672',4.890,4.920
'0:12.676',4.865,4.910
'0:12.680',4.855,4.920
'0:12.684',4.875,4.940
'0:12.688',4.875,4.920
'0:12.692',4.860,4.910
'0:12.696',4.870,4.905
'0:12.700',4.880,4.915
'0:12.704',4.885,4.925
'0:12.708',4.880,4.920
'0:12.712',4.875,4.915
'0:12.716',4.885,4.920
'0:12.720',4.895,4.925
'0:12.724',4.895,4.910
'0:12.728',4.895,4.900
'0:12.732',4.925,4.915
'0:12.736',4.935,4.920
'0:12.740',4.935,4.910
'0:12.744',4.930,4.910
'0:12.748',4.950,4.930
'0:12.752',4.970,4.930
'0:12.756',4.955,4.925
'0:12.760',4.970,4.925
'0:12.764',4.990,4.940
'0:12.768',5.005,4.945
'0:12.772',5.005,4.950
'0:12.776',5.000,4.935
'0:12.780',4.990,4.955
'0:12.784',4.990,4.975
'0:12.788',4.985,4.965
'0:12.792',4.980,4.955
'0:12.796',4.985,4.975
'0:12.800',4.990,4.985
'0:12.804',5.000,4.990
'0:12.808',5.025,4.965
'0:12.812',5.000,4.945
'0:12.816',4.950,4.960
'0:12.820',4.945,4.960
'0:12.824',4.935,4.945
'0:12.828',4.910,4.935
'0:12.832',4.890,4.940
'0:12.836',4.880,4.945
'0:12.840',4.865,4.925
'0:12.844',4.850,4.920
'0:12.848',4.850,4.935
'0:12.852',4.855,4.940
'0:12.856',4.855,4.925
'0:12.860',4.835,4.910
'0:12.864',4.845,4.925
'0:12.868',4.845,4.935
'0:12.872',4.835,4.925
'0:12.876',4.835,4.920
'0:12.880',4.840,4.915
'0:12.884',4.845,4.930
'0:12.888',4.850,4.920
'0:12.892',4.855,4.920
'0:12.896',4.830,4.920
'0:12.900',4.840,4.930
'0:12.904',4.850,4.915
'0:12.908',4.835,4.875
'0:12.912',4.800,4.855
'0:12.916',4.750,4.850
'0:12.920',4.730,4.825
'0:12.924',4.685,4.835
'0:12.928',4.615,4.935
'0:12.932',4.690,5.070
'0:12.936',4.855,5.180
'0:12.940',5.045,5.285
'0:12.944',5.320,5.420
'0:12.948',5.740,5.560
'0:12.952',6.015,5.620
'0:12.956',6.095,5.465
'0:12.960',5.865,5.130
'0:12.964',5.395,4.835
'0:12.968',4.985,4.735
'0:12.972',4.745,4.705
'0:12.976',4.610,4.740
'0:12.980',4.550,4.795
'0:12.984',4.575,4.835
'0:12.988',4.655,4.850
'0:12.992',4.730,4.860
'0:12.996',4.755,4.860
'0:13.000',4.765,4.865
'0:13.004',4.765,4.885
'0:13.008',4.770,4.860
'0:13.012',4.765,4.865
'0:13.016',4.765,4.870
'0:13.020',4.780,4.875
'0:13.024',4.770,4.870
'0:13.028',4.750,4.870
'0:13.032',4.765,4.885
'0:13.036',4.775,4.880
'0:13.040',4.780,4.865
'0:13.044',4.765,4.870
'0:13.048',4.765,4.885
'0:13.052',4.785,4.895
'0:13.056',4.785,4.865
'0:13.060',4.770,4.870
'0:13.064',4.765,4.875
'0:13.068',4.775,4.890
'0:13.072',4.780,4.885
'0:13.076',4.770,4.870
'0:13.080',4.765,4.870
'0:13.084',4.765,4.880
'0:13.088',4.770,4.880
'0:13.092',4.770,4.875
'0:13.096',4.765,4.875
'0:13.100',4.770,4.880
'0:13.104',4.785,4.865
'0:13.108',4.775,4.865
'0:13.112',4.775,4.870
'0:13.116',4.775,4.875
'0:13.120',4.790,4.875
'0:13.124',4.785,4.865
'0:13.128',4.770,4.860
'0:13.132',4.770,4.875
'0:13.136',4.775,4.880
'0:13.140',4.775,4.865
'0:13.144',4.760,4.845
'0:13.148',4.770,4.845
'0:13.152',4.775,4.855
'0:13.156',4.780,4.855
'0:13.160',4.785,4.835
'0:13.164',4.785,4.850
'0:13.168',4.785,4.840
'0:13.172',4.785,4.835
'0:13.176',4.795,4.825
'0:13.180',4.795,4.815
'0:13.184',4.805,4.825
'0:13.188',4.800,4.820
'0:13.192',4.795,4.800
'0:13.196',4.785,4.800
'0:13.200',4.790,4.810
'0:13.204',4.800,4.800
'0:13.208',4.790,4.790
'0:13.212',4.785,4.790
'0:13.216',4.785,4.800
'0:13.220',4.795,4.790
'0:13.224',4.780,4.780
'0:13.228',4.775,4.780
'0:13.232',4.780,4.800
'0:13.236',4.790,4.810
'0:13.240',4.790,4.795
'0:13.244',4.775,4.800
'0:13.248',4.780,4.825
'0:13.252',4.805,4.850
'0:13.256',4.805,4.850
'0:13.260',4.820,4.855
'0:13.264',4.830,4.885
'0:13.268',4.850,4.895
'0:13.272',4.865,4.895
'0:13.276',4.850,4.905
'0:13.280',4.855,4.905
'0:13.284',4.875,4.930
'0:13.288',4.875,4.910
'0:13.292',4.875,4.900
'0:13.296',4.875,4.905
'0:13.300',4.880,4.905
'0:13.304',4.890,4.915
'0:13.308',4.885,4.920
'0:13.312',4.875,4.905
'0:13.316',4.880,4.920
'0:13.320',4.895,4.915
'0:13.324',4.885,4.910
'0:13.328',4.870,4.905
'0:13.332',4.875,4.920
'0:13.336',4.885,4.920
'0:13.340',4.885,4.920
'0:13.344',4.880,4.910
'0:13.348',4.860,4.925
'0:13.352',4.880,4.930
'0:13.356',4.865,4.915
'0:13.360',4.845,4.910
'0:13.364',4.855,4.920
'0:13.368',4.865,4.935
'0:13.372',4.875,4.920
'0:13.376',4.860,4.905
'0:13.380',4.845,4.905
'0:13.384',4.845,4.915
'0:13.388',4.855,4.900
'0:13.392',4.850,4.895
'0:13.396',4.845,4.895
'0:13.400',4.845,4.900
'0:13.404',4.865,4.910
'0:13.408',4.850,4.900
'0:13.412',4.830,4.885
'0:13.416',4.830,4.895
'0:13.420',4.820,4.890
'0:13.424',4.825,4.890
'0:13.428',4.810,4.895
'0:13.432',4.820,4.890
'0:13.436',4.820,4.895
'0:13.440',4.805,4.895
'0:13.444',4.795,4.880
'0:13.448',4.800,4.890
'0:13.452',4.820,4.890
'0:13.456',4.820,4.880
'0:13.460',4.815,4.870
'0:13.464',4.810,4.880
'0:13.468',4.815,4.900
'0:13.472',4.820,4.880
'0:13.476',4.805,4.875
'0:13.480',4.790,4.865
'0:13.484',4.830,4.895
'0:13.488',4.855,4.875
'0:13.492',4.845,4.860
'0:13.496',4.850,4.850
'0:13.500',4.850,4.855
'0:13.504',4.850,4.875
'0:13.508',4.860,4.885
'0:13.512',4.875,4.885
'0:13.516',4.920,4.915
'0:13.520',4.935,4.920
'0:13.524',4.920,4.910
'0:13.528',4.905,4.910
'0:13.532',4.925,4.915
'0:13.536',4.930,4.920
'0:13.540',4.920,4.930
'0:13.544',4.910,4.925
'0:13.548',4.915,4.940
'0:13.552',4.925,4.965
'0:13.556',4.940,4.940
'0:13.560',4.935,4.910
'0:13.564',4.900,4.915
'0:13.568',4.875,4.935
'0:13.572',4.860,4.935
'0:13.576',4.840,4.905
'0:13.580',4.820,4.915
'0:13.584',4.815,4.920
'0:13.588',4.815,4.920
'0:13.592',4.805,4.920
'0:13.596',4.805,4.915
'0:13.600',4.810,4.910
'0:13.604',4.805,4.920
'0:13.608',4.795,4.905
'0:13.612',4.780,4.895
'0:13.616',4.785,4.910
'0:13.620',4.800,4.920
'0:13.624',4.785,4.910
'0:13.628',4.775,4.895
'0:13.632',4.785,4.910
'0:13.636',4.790,4.920
'0:13.640',4.770,4.915
'0:13.644',4.755,4.905
'0:13.648',4.775,4.915
'0:13.652',4.790,4.905
'0:13.656',4.770,4.880
'0:13.660',4.705,4.845
'0:13.664',4.655,4.825
'0:13.668',4.650,4.835
'0:13.672',4.600,4.890
'0:13.676',4.640,5.010
'0:13.680',4.785,5.140
'0:13.684',4.995,5.230
'0:13.688',5.280,5.320
'0:13.692',5.650,5.425
'0:13.696',5.945,5.480
'0:13.700',6.020,5.470
'0:13.704',5.770,4.945
'0:13.708',5.180,4.785
'0:13.712',4.735,4.825
'0:13.716',4.610,4.865
'0:13.720',4.640,4.890
'0:13.724',4.695,4.890
'0:13.728',4.705,4.900
'0:13.732',4.720,4.905
'0:13.736',4.735,4.910
'0:13.740',4.740,4.910
'0:13.744',4.735,4.900
'0:13.748',4.735,4.910
'0:13.752',4.745,4.925
'0:13.756',4.745,4.915
'0:13.760',4.735,4.895
'0:13.764',4.720,4.905
'0:13.768',4.735,4.940
'0:13.772',4.745,4.950
'0:13.776',4.740,4.940
'0:13.780',4.740,4.935
'0:13.784',4.740,4.940
'0:13.788',4.720,4.930
'0:13.792',4.725,4.910
'0:13.796',4.715,4.915
'0:13.800',4.725,4.920
'0:13.804',4.720,4.935
'0:13.808',4.710,4.910
'0:13.812',4.695,4.910
'0:13.816',4.715,4.940
'0:13.820',4.720,4.940
'0:13.824',4.715,4.925
'0:13.828',4.705,4.910
'0:13.832',4.700,4.920
'0:13.836',4.705,4.920
'0:13.840',4.715,4.910
'0:13.844',4.690,4.900
'0:13.848',4.695,4.905
'0:13.852',4.700,4.920
'0:13.856',4.700,4.920
'0:13.860',4.690,4.905
'0:13.864',4.685,4.920
'0:13.868',4.710,4.920
'0:13.872',4.710,4.920
'0:13.876',4.695,4.885
'0:13.880',4.690,4.905
'0:13.884',4.720,4.915
'0:13.888',4.730,4.910
'0:13.892',4.720,4.905
'0:13.896',4.700,4.905
'0:13.900',4.705,4.910
'0:13.904',4.720,4.900
'0:13.908',4.695,4.880
'0:13.912',4.685,4.885
'0:13.916',4.710,4.895
'0:13.920',4.720,4.890
'0:13.924',4.720,4.865
'0:13.928',4.705,4.850
'0:13.932',4.695,4.855
'0:13.936',4.690,4.855
'0:13.940',4.670,4.850
'0:13.944',4.650,4.830
'0:13.948',4.645,4.825
'0:13.952',4.655,4.830
'0:13.956',4.660,4.825
'0:13.960',4.640,4.820
'0:13.964',4.645,4.825
'0:13.968',4.660,4.840
'0:13.972',4.675,4.835
'0:13.976',4.670,4.840
'0:13.980',4.665,4.845
'0:13.984',4.675,4.875
'0:13.988',4.715,4.890
'0:13.992',4.745,4.895
'0:13.996',4.750,4.910
'0:14.000',4.755,4.915
'0:14.004',4.780,4.940
'0:14.008',4.785,4.940
'0:14.012',4.785,4.945
'0:14.016',4.805,4.975
'0:14.020',4.830,4.985
'0:14.024',4.840,4.990
'0:14.028',4.835,4.980
'0:14.032',4.840,4.990
'0:14.036',4.845,4.995
'0:14.040',4.855,4.985
'0:14.044',4.835,4.980
'0:14.048',4.850,4.990
'0:14.052',4.865,4.995
'0:14.056',4.855,4.985
'0:14.060',4.855,4.975
'0:14.064',4.855,4.975
'0:14.068',4.855,4.990
'0:14.072',4.865,4.995
'0:14.076',4.850,4.970
'0:14.080',4.830,4.975
'0:14.084',4.840,4.980
'0:14.088',4.845,4.980
'0:14.092',4.845,4.960
'0:14.096',4.835,4.965
'0:14.100',4.845,4.970
'0:14.104',4.850,4.970
'0:14.108',4.840,4.960
'0:14.112',4.815,4.960
'0:14.116',4.830,4.970
'0:14.120',4.840,4.970
'0:14.124',4.840,4.945
'0:14.128',4.820,4.950
'0:14.132',4.820,4.950
'0:14.136',4.815,4.955
'0:14.140',4.820,4.955
'0:14.144',4.815,4.940
'0:14.148',4.815,4.940
'0:14.152',4.820,4.950
'0:14.156',4.815,4.935
'0:14.160',4.805,4.930
'0:14.164',4.795,4.940
'0:14.168',4.800,4.950
'0:14.172',4.820,4.945
'0:14.176',4.810,4.925
'0:14.180',4.800,4.935
'0:14.184',4.810,4.940
'0:14.188',4.815,4.945
'0:14.192',4.810,4.930
'0:14.196',4.810,4.930
'0:14.200',4.810,4.940
'0:14.204',4.840,4.950
'0:14.208',4.835,4.940
'0:14.212',4.830,4.930
'0:14.216',4.860,4.945
'0:14.220',4.870,4.945
'0:14.224',4.870,4.935
'0:14.228',4.875,4.925
'0:14.232',4.890,4.925
'0:14.236',4.900,4.930
'0:14.240',4.910,4.920
'0:14.244',4.905,4.920
'0:14.248',4.915,4.930
'0:14.252',4.945,4.945
'0:14.256',4.960,4.945
'0:14.260',4.940,4.930
'0:14.264',4.940,4.930
'0:14.268',4.940,4.940
'0:14.272',4.945,4.935
'0:14.276',4.920,4.940
'0:14.280',4.940,4.945
'0:14.284',4.950,4.945
'0:14.288',4.960,4.960
'0:14.292',4.945,4.960
'0:14.296',4.950,4.960
'0:14.300',4.960,4.970
'0:14.304',4.975,4.950
'0:14.308',4.910,4.930
'0:14.312',4.870,4.925
'0:14.316',4.865,4.935
'0:14.320',4.855,4.930
'0:14.324',4.825,4.915
'0:14.328',4.795,4.910
'0:14.332',4.830,4.920
'0:14.336',4.840,4.930
'0:14.340',4.840,4.920
'0:14.344',4.820,4.910
'0:14.348',4.815,4.920
'0:14.352',4.820,4.920
'0:14.356',4.820,4.915
'0:14.360',4.810,4.905
'0:14.364',4.800,4.910
'0:14.368',4.805,4.920
'0:14.372',4.815,4.915
'0:14.376',4.820,4.905
'0:14.380',4.815,4.905
'0:14.384',4.820,4.895
'0:14.388',4.785,4.855
'0:14.392',4.725,4.820
'0:14.396',4.685,4.810
'0:14.400',4.680,4.820
'0:14.404',4.650,4.985
'0:14.408',4.760,5.125
'0:14.412',4.975,5.230
'0:14.416',5.255,5.355
'0:14.420',5.615,5.485
'0:14.424',5.960,5.540
'0:14.428',6.105,5.410
'0:14.432',5.900,5.020
'0:14.436',5.325,4.760
'0:14.440',4.780,4.780
'0:14.444',4.605,4.820
'0:14.448',4.675,4.855
'0:14.452',4.755,4.870
'0:14.456',4.780,4.880
'0:14.460',4.770,4.855
'0:14.464',4.765,4.850
'0:14.468',4.770,4.860
'0:14.472',4.765,4.865
'0:14.476',4.765,4.855
'0:14.480',4.755,4.850
'0:14.484',4.760,4.860
'0:14.488',4.770,4.865
'0:14.492',4.745,4.840
'0:14.496',4.745,4.850
'0:14.500',4.750,4.855
'0:14.504',4.770,4.855
'0:14.508',4.755,4.850
'0:14.512',4.735,4.850
'0:14.516',4.750,4.870
'0:14.520',4.755,4.860
'0:14.524',4.765,4.855
'0:14.528',4.745,4.855
'0:14.532',4.740,4.865
'0:14.536',4.755,4.875
'0:14.540',4.765,4.855
'0:14.544',4.740,4.850
'0:14.548',4.740,4.860
'0:14.552',4.755,4.865
'0:14.556',4.765,4.865
'0:14.560',4.755,4.855
'0:14.564',4.755,4.860
'0:14.568',4.765,4.870
'0:14.572',4.765,4.855
'0:14.576',4.740,4.850
'0:14.580',4.735,4.845
'0:14.584',4.750,4.865
'0:14.588',4.765,4.855
'0:14.592',4.755,4.845
'0:14.596',4.750,4.850
'0:14.600',4.755,4.850
'0:14.604',4.775,4.860
'0:14.608',4.775,4.850
'0:14.612',4.755,4.845
'0:14.616',4.775,4.850
'0:14.620',4.790,4.840
'0:14.624',4.775,4.825
'0:14.628',4.750,4.815
'0:14.632',4.750,4.825
'0:14.636',4.770,4.825
'0:14.640',4.755,4.810
'0:14.644',4.760,4.795
'0:14.648',4.750,4.795
'0:14.652',4.750,4.805
'0:14.656',4.740,4.795
'0:14.660',4.730,4.765
'0:14.664',4.720,4.765
'0:14.668',4.740,4.765
'0:14.672',4.735,4.755
'0:14.676',4.725,4.740
'0:14.680',4.720,4.745
'0:14.684',4.740,4.760
'0:14.688',4.735,4.745
'0:14.692',4.735,4.745
'0:14.696',4.730,4.750
'0:14.700',4.730,4.760
'0:14.704',4.765,4.785
'0:14.708',4.770,4.790
'0:14.712',4.770,4.805
'0:14.716',4.800,4.840
'0:14.720',4.835,4.855
'0:14.724',4.840,4.870
'0:14.728',4.845,4.880
'0:14.732',4.865,4.895
'0:14.736',4.890,4.905
'0:14.740',4.895,4.920
'0:14.744',4.895,4.910
'0:14.748',4.910,4.925
'0:14.752',4.920,4.940
'0:14.756',4.925,4.940
'0:14.760',4.910,4.925
'0:14.764',4.915,4.930
'0:14.768',4.925,4.945
'0:14.772',4.935,4.945
'0:14.776',4.920,4.930
'0:14.780',4.915,4.930
'0:14.784',4.930,4.950
'0:14.788',4.935,4.940
'0:14.792',4.930,4.930
'0:14.796',4.920,4.940
'0:14.800',4.920,4.945
'0:14.804',4.925,4.945
'0:14.808',4.930,4.935
'0:14.812',4.915,4.920
'0:14.816',4.910,4.945
'0:14.820',4.920,4.950
'0:14.824',4.920,4.935
'0:14.828',4.910,4.925
'0:14.832',4.915,4.940
'0:14.836',4.920,4.950
'0:14.840',4.920,4.935
'0:14.844',4.910,4.925
'0:14.848',4.910,4.930
'0:14.852',4.920,4.930
'0:14.856',4.915,4.935
'0:14.860',4.895,4.925
'0:14.864',4.895,4.915
'0:14.868',4.900,4.930
'0:14.872',4.905,4.915
'0:14.876',4.895,4.910
'0:14.880',4.885,4.915
'0:14.884',4.890,4.925
'0:14.888',4.900,4.915
'0:14.892',4.885,4.905
'0:14.896',4.875,4.905
'0:14.900',4.875,4.910
'0:14.904',4.900,4.925
'0:14.908',4.900,4.920
'0:14.912',4.890,4.895
'0:14.916',4.885,4.905
'0:14.920',4.900,4.915
'0:14.924',4.910,4.905
'0:14.928',4.905,4.890
'0:14.932',4.910,4.910
'0:14.936',4.930,4.920
'0:14.940',4.945,4.905
'0:14.944',4.945,4.895
'0:14.948',4.955,4.910
'0:14.952',4.965,4.925
'0:14.956',4.985,4.915
'0:14.960',4.985,4.920
'0:14.964',4.990,4.935
'0:14.968',5.005,4.950
'0:14.972',5.010,4.950
'0:14.976',4.980,4.945
'0:14.980',4.965,4.950
'0:14.984',4.995,4.975
'0:14.988',5.005,4.980
'0:14.992',5.010,4.980
'0:14.996',5.015,4.975
'0:15.000',5.030,4.975
'0:15.004',4.995,4.965
'0:15.008',4.955,4.945
'0:15.012',4.930,4.940
'0:15.016',4.920,4.950
'0:15.020',4.915,4.950
'0:15.024',4.885,4.935
'0:15.028',4.860,4.930
'0:15.032',4.875,4.940
'0:15.036',4.880,4.950
'0:15.040',4.885,4.945
'0:15.044',4.865,4.930
'0:15.048',4.860,4.930
'0:15.052',4.870,4.940
'0:15.056',4.870,4.940
'0:15.060',4.870,4.925
'0:15.064',4.860,4.920
'0:15.068',4.870,4.945
'0:15.072',4.870,4.940
'0:15.076',4.870,4.935
'0:15.080',4.860,4.935
'0:15.084',4.875,4.935
'0:15.088',4.860,4.905
'0:15.092',4.820,4.870
'0:15.096',4.760,4.835
'0:15.100',4.740,4.830
'0:15.104',4.700,4.900
'0:15.108',4.680,5.040
'0:15.112',4.815,5.205
'0:15.116',5.050,5.345
'0:15.120',5.335,5.495
'0:15.124',5.740,5.640
'0:15.128',6.070,5.670
'0:15.132',6.120,5.350
'0:15.136',5.775,4.930
'0:15.140',5.110,4.810
'0:15.144',4.695,4.860
'0:15.148',4.680,4.885
'0:15.152',4.790,4.900
'0:15.156',4.830,4.900
'0:15.160',4.805,4.895
'0:15.164',4.800,4.895
'0:15.168',4.815,4.900
'0:15.172',4.825,4.895
'0:15.176',4.810,4.880
'0:15.180',4.815,4.890
'0:15.184',4.820,4.910
'0:15.188',4.825,4.900
'0:15.192',4.815,4.890
'0:15.196',4.805,4.890
'0:15.200',4.810,4.895
'0:15.204',4.825,4.900
'0:15.208',4.820,4.890
'0:15.212',4.810,4.890
'0:15.216',4.815,4.900
'0:15.220',4.815,4.910
'0:15.224',4.810,4.895
'0:15.228',4.785,4.880
'0:15.232',4.795,4.895
'0:15.236',4.810,4.905
'0:15.240',4.810,4.900
'0:15.244',4.800,4.900
'0:15.248',4.805,4.910
'0:15.252',4.815,4.910
'0:15.256',4.820,4.905
'0:15.260',4.805,4.900
'0:15.264',4.795,4.900
'0:15.268',4.815,4.905
'0:15.272',4.820,4.900
'0:15.276',4.810,4.895
'0:15.280',4.805,4.885
'0:15.284',4.810,4.895
'0:15.288',4.820,4.895
'0:15.292',4.810,4.880
'0:15.296',4.800,4.885
'0:15.300',4.810,4.890
'0:15.304',4.820,4.890
'0:15.308',4.820,4.875
'0:15.312',4.815,4.870
'0:15.316',4.820,4.870
'0:15.320',4.845,4.875
'0:15.324',4.830,4.870
'0:15.328',4.820,4.855
'0:15.332',4.825,4.855
'0:15.336',4.830,4.850
'0:15.340',4.830,4.840
'0:15.344',4.820,4.825
'0:15.348',4.810,4.815
'0:15.352',4.820,4.830
'0:15.356',4.825,4.805
'0:15.360',4.815,4.795
'0:15.364',4.800,4.785
'0:15.368',4.795,4.790
'0:15.372',4.815,4.790
'0:15.376',4.805,4.775
'0:15.380',4.805,4.770
'0:15.384',4.810,4.785
'0:15.388',4.825,4.800
'0:15.392',4.800,4.795
'0:15.396',4.800,4.805
'0:15.400',4.800,4.810
'0:15.404',4.840,4.850
'0:15.408',4.845,4.855
'0:15.412',4.850,4.875
'0:15.416',4.875,4.900
'0:15.420',4.895,4.915
'0:15.424',4.905,4.915
'0:15.428',4.900,4.920
'0:15.432',4.900,4.950
'0:15.436',4.905,4.960
'0:15.440',4.925,4.950
'0:15.444',4.905,4.940
'0:15.448',4.910,4.955
'0:15.452',4.940,4.970
'0:15.456',4.935,4.955
'0:15.460',4.930,4.950
'0:15.464',4.925,4.950
'0:15.468',4.930,4.955
'0:15.472',4.935,4.955
'0:15.476',4.915,4.950
'0:15.480',4.910,4.950
'0:15.484',4.925,4.965
'0:15.488',4.935,4.955
'0:15.492',4.930,4.940
'0:15.496',4.915,4.950
'0:15.500',4.915,4.955
'0:15.504',4.925,4.965
'0:15.508',4.915,4.950
'0:15.512',4.915,4.945
'0:15.516',4.910,4.960
'0:15.520',4.935,4.955
'0:15.524',4.930,4.940
'0:15.528',4.915,4.950
'0:15.532',4.920,4.950
'0:15.536',4.925,4.945
'0:15.540',4.910,4.940
'0:15.544',4.890,4.925
'0:15.548',4.880,4.930
'0:15.552',4.900,4.945
'0:15.556',4.900,4.940
'0:15.560',4.890,4.920
'0:15.564',4.885,4.920
'0:15.568',4.880,4.935
'0:15.572',4.895,4.925
'0:15.576',4.890,4.910
'0:15.580',4.885,4.920
'0:15.584',4.885,4.925
'0:15.588',4.880,4.905
'0:15.592',4.870,4.900
'0:15.596',4.855,4.920
'0:15.600',4.860,4.930
'0:15.604',4.900,4.920
'0:15.608',4.885,4.910
'0:15.612',4.855,4.910
'0:15.616',4.865,4.935
'0:15.620',4.885,4.935
'0:15.624',4.885,4.920
'0:15.628',4.875,4.885
'0:15.632',4.880,4.905
'0:15.636',4.900,4.915
'0:15.640',4.920,4.905
'0:15.644',4.910,4.910
'0:15.648',4.910,4.920
'0:15.652',4.930,4.925
'0:15.656',4.945,4.920
'0:15.660',4.945,4.930
'0:15.664',4.950,4.940
'0:15.668',4.980,4.960
'0:15.672',4.985,4.945
'0:15.676',4.965,4.925
'0:15.680',4.945,4.935
'0:15.684',4.945,4.960
'0:15.688',4.965,4.970
'0:15.692',4.960,4.960
'0:15.696',4.955,4.990
'0:15.700',4.960,4.995
'0:15.704',5.005,4.970
'0:15.708',4.960,4.950
'0:15.712',4.910,4.935
'0:15.716',4.895,4.945
'0:15.720',4.900,4.950
'0:15.724',4.870,4.930
'0:15.728',4.855,4.915
'0:15.732',4.845,4.925
'0:15.736',4.850,4.930
'0:15.740',4.830,4.915
'0:15.744',4.800,4.900
'0:15.748',4.800,4.905
'0:15.752',4.810,4.920
'0:15.756',4.815,4.930
'0:15.760',4.815,4.910
'0:15.764',4.790,4.910
'0:15.768',4.820,4.920
'0:15.772',4.830,4.910
'0:15.776',4.795,4.900
'0:15.780',4.785,4.910
'0:15.784',4.795,4.920
'0:15.788',4.810,4.925
'0:15.792',4.800,4.895
'0:15.796',4.780,4.875
'0:15.800',4.770,4.880
'0:15.804',4.750,4.865
'0:15.808',4.695,4.845
'0:15.812',4.685,4.830
'0:15.816',4.690,4.800
'0:15.820',4.645,4.845
'0:15.824',4.600,4.965
'0:15.828',4.705,5.110
'0:15.832',4.935,5.225
'0:15.836',5.225,5.330
'0:15.840',5.620,5.490
'0:15.844',5.955,5.515
'0:15.848',6.040,5.245
'0:15.852',5.765,4.855
'0:15.856',5.160,4.715
'0:15.860',4.720,4.770
'0:15.864',4.590,4.825
'0:15.868',4.660,4.850
'0:15.872',4.725,4.855
'0:15.876',4.735,4.850
'0:15.880',4.725,4.840
'0:15.884',4.735,4.860
'0:15.888',4.750,4.865
'0:15.892',4.735,4.850
'0:15.896',4.730,4.855
'0:15.900',4.735,4.860
'0:15.904',4.755,4.855
'0:15.908',4.745,4.845
'0:15.912',4.715,4.840
'0:15.916',4.725,4.855
'0:15.920',4.745,4.865
'0:15.924',4.750,4.870
'0:15.928',4.740,4.860
'0:15.932',4.735,4.870
'0:15.936',4.740,4.875
'0:15.940',4.740,4.865
'0:15.944',4.720,4.850
'0:15.948',4.705,4.850
'0:15.952',4.700,4.860
'0:15.956',4.705,4.860
'0:15.960',4.715,4.860
'0:15.964',4.720,4.875
'0:15.968',4.725,4.875
'0:15.972',4.735,4.875
'0:15.976',4.725,4.855
'0:15.980',4.715,4.855
'0:15.984',4.710,4.855
'0:15.988',4.720,4.865
'0:15.992',4.705,4.850
'0:15.996',4.690,4.850
'0:16.000',4.690,4.850
'0:16.004',4.690,4.855
'0:16.008',4.690,4.850
'0:16.012',4.715,4.840
'0:16.016',4.710,4.835
'0:16.020',4.710,4.840
'0:16.024',4.700,4.850
'0:16.028',4.715,4.830
'0:16.032',4.720,4.840
'0:16.036',4.725,4.850
'0:16.040',4.720,4.830
'0:16.044',4.695,4.815
'0:16.048',4.695,4.830
'0:16.052',4.720,4.825
'0:16.056',4.705,4.815
'0:16.060',4.700,4.795
'0:16.064',4.705,4.790
'0:16.068',4.705,4.785
'0:16.072',4.680,4.760
'0:16.076',4.680,4.735
'0:16.080',4.645,4.740
'0:16.084',4.655,4.745
'0:16.088',4.675,4.740
'0:16.092',4.660,4.720
'0:16.096',4.645,4.710
'0:16.100',4.640,4.720
'0:16.104',4.645,4.750
'0:16.108',4.655,4.745
'0:16.112',4.655,4.720
'0:16.116',4.660,4.760
'0:16.120',4.685,4.775
'0:16.124',4.690,4.790
'0:16.128',4.705,4.805
'0:16.132',4.735,4.835
'0:16.136',4.770,4.850
'0:16.140',4.770,4.860
'0:16.144',4.770,4.865
'0:16.148',4.775,4.880
'0:16.152',4.800,4.895
'0:16.156',4.830,4.890
'0:16.160',4.815,4.885
'0:16.164',4.795,4.895
'0:16.168',4.815,4.920
'0:16.172',4.835,4.920
'0:16.176',4.840,4.910
'0:16.180',4.830,4.910
'0:16.184',4.845,4.915
'0:16.188',4.840,4.920
'0:16.192',4.815,4.925
'0:16.196',4.830,4.915
'0:16.200',4.840,4.910
'0:16.204',4.860,4.940
'0:16.208',4.840,4.930
'0:16.212',4.825,4.910
'0:16.216',4.820,4.930
'0:16.220',4.825,4.905
'0:16.224',4.815,4.905
'0:16.228',4.815,4.890
'0:16.232',4.815,4.900
'0:16.236',4.830,4.910
'0:16.240',4.825,4.910
'0:16.244',4.820,4.900
'0:16.248',4.820,4.900
'0:16.252',4.830,4.910
'0:16.256',4.830,4.895
'0:16.260',4.825,4.890
'0:16.264',4.800,4.900
'0:16.268',4.795,4.905
'0:16.272',4.805,4.910
'0:16.276',4.810,4.895
'0:16.280',4.810,4.905
'0:16.284',4.820,4.905
'0:16.288',4.815,4.885
'0:16.292',4.790,4.870
'0:16.296',4.780,4.870
'0:16.300',4.785,4.875
'0:16.304',4.800,4.900
'0:16.308',4.790,4.890
'0:16.312',4.785,4.880
'0:16.316',4.790,4.875
'0:16.320',4.810,4.885
'0:16.324',4.795,4.885
'0:16.328',4.785,4.875
'0:16.332',4.790,4.880
'0:16.336',4.790,4.885
'0:16.340',4.795,4.885
'0:16.344',4.795,4.870
'0:16.348',4.790,4.865
'0:16.352',4.810,4.885
'0:16.356',4.820,4.890
'0:16.360',4.825,4.880
'0:16.364',4.830,4.890
'0:16.368',4.845,4.890
'0:16.372',4.850,4.890
'0:16.376',4.860,4.885
'0:16.380',4.860,4.890
'0:16.384',4.870,4.895
'0:16.388',4.890,4.895
'0:16.392',4.900,4.890
'0:16.396',4.900,4.900
'0:16.400',4.905,4.905
'0:16.404',4.920,4.925
'0:16.408',4.915,4.905
'0:16.412',4.910,4.905
'0:16.416',4.905,4.925
'0:16.420',4.920,4.940
'0:16.424',4.920,4.940
'0:16.428',4.915,4.940
'0:16.432',4.930,4.960
'0:16.436',4.965,4.965
'0:16.440',4.955,4.940
'0:16.444',4.895,4.925
'0:16.448',4.865,4.925
'0:16.452',4.855,4.930
'0:16.456',4.840,4.920
'0:16.460',4.815,4.905
'0:16.464',4.800,4.905
'0:16.468',4.800,4.915
'0:16.472',4.805,4.920
'0:16.476',4.805,4.910
'0:16.480',4.800,4.910
'0:16.484',4.810,4.920
'0:16.488',4.815,4.915
'0:16.492',4.810,4.900
'0:16.496',4.790,4.915
'0:16.500',4.785,4.925
'0:16.504',4.815,4.925
'0:16.508',4.805,4.900
'0:16.512',4.785,4.900
'0:16.516',4.800,4.910
'0:16.520',4.800,4.920
'0:16.524',4.780,4.920
'0:16.528',4.780,4.895
'0:16.532',4.785,4.885
'0:16.536',4.775,4.865
'0:16.540',4.720,4.860
'0:16.544',4.685,4.840
'0:16.548',4.655,4.900
'0:16.552',4.640,5.015
'0:16.556',4.735,5.155
'0:16.560',4.935,5.265
'0:16.564',5.195,5.360
'0:16.568',5.565,5.480
'0:16.572',5.930,5.550
'0:16.576',6.100,5.440
'0:16.580',6.055,5.130
'0:16.584',5.655,4.855
'0:16.588',5.060,4.750
'0:16.592',4.690,4.750
'0:16.596',4.610,4.800
'0:16.600',4.605,4.820
'0:16.604',4.705,4.860
'0:16.608',4.750,4.865
'0:16.612',4.750,4.845
'0:16.616',4.740,4.860
'0:16.620',4.755,4.870
'0:16.624',4.755,4.870
'0:16.628',4.745,4.855
'0:16.632',4.745,4.865
'0:16.636',4.755,4.875
'0:16.640',4.755,4.875
'0:16.644',4.745,4.860
'0:16.648',4.735,4.875
'0:16.652',4.745,4.880
'0:16.656',4.750,4.885
'0:16.660',4.750,4.875
'0:16.664',4.740,4.880
'0:16.668',4.755,4.890
'0:16.672',4.760,4.880
'0:16.676',4.755,4.890
'0:16.680',4.740,4.885
'0:16.684',4.750,4.895
'0:16.688',4.770,4.895
'0:16.692',4.765,4.885
'0:16.696',4.760,4.875
'0:16.700',4.755,4.870
'0:16.704',4.775,4.900
'0:16.708',4.765,4.890
'0:16.712',4.755,4.885
'0:16.716',4.750,4.890
'0:16.720',4.765,4.900
'0:16.724',4.755,4.885
'0:16.728',4.740,4.870
'0:16.732',4.740,4.885
'0:16.736',4.745,4.890
'0:16.740',4.775,4.885
'0:16.744',4.760,4.875
'0:16.748',4.740,4.865
'0:16.752',4.755,4.875
'0:16.756',4.765,4.875
'0:16.760',4.745,4.860
'0:16.764',4.735,4.845
'0:16.768',4.745,4.860
'0:16.772',4.755,4.860
'0:16.776',4.750,4.835
'0:16.780',4.740,4.830
'0:16.784',4.750,4.835
'0:16.788',4.750,4.825
'0:16.792',4.740,4.810
'0:16.796',4.730,4.805
'0:16.800',4.725,4.800
'0:16.804',4.740,4.790
'0:16.808',4.730,4.775
'0:16.812',4.725,4.745
'0:16.816',4.715,4.755
'0:16.820',4.730,4.755
'0:16.824',4.720,4.735
'0:16.828',4.705,4.715
'0:16.832',4.715,4.730
'0:16.836',4.725,4.730
'0:16.840',4.720,4.725
'0:16.844',4.710,4.715
'0:16.848',4.720,4.735
'0:16.852',4.740,4.755
'0:16.856',4.750,4.765
'0:16.860',4.750,4.760
'0:16.864',4.755,4.800
'0:16.868',4.775,4.825
'0:16.872',4.800,4.845
'0:16.876',4.815,4.845
'0:16.880',4.815,4.865
'0:16.884',4.850,4.895
'0:16.888',4.875,4.905
'0:16.892',4.880,4.905
'0:16.896',4.885,4.925
'0:16.900',4.875,4.930
'0:16.904',4.920,4.950
'0:16.908',4.925,4.945
'0:16.912',4.925,4.940
'0:16.916',4.935,4.960
'0:16.920',4.950,4.970
'0:16.924',4.940,4.955
'0:16.928',4.930,4.935
'0:16.932',4.940,4.950
'0:16.936',4.945,4.965
'0:16.940',4.935,4.970
'0:16.944',4.930,4.960
'0:16.948',4.930,4.950
'0:16.952',4.945,4.960
'0:16.956',4.945,4.970
'0:16.960',4.930,4.950
'0:16.964',4.930,4.940
'0:16.968',4.930,4.950
'0:16.972',4.940,4.960
'0:16.976',4.930,4.950
'0:16.980',4.930,4.950
'0:16.984',4.950,4.975
'0:16.988',4.960,4.975
'0:16.992',4.950,4.960
'0:16.996',4.940,4.945
'0:17.000',4.935,4.950
'0:17.004',4.930,4.965
'0:17.008',4.920,4.945
'0:17.012',4.910,4.945
'0:17.016',4.910,4.945
'0:17.020',4.920,4.960
'0:17.024',4.920,4.940
'0:17.028',4.905,4.925
'0:17.032',4.905,4.945
'0:17.036',4.925,4.950
'0:17.040',4.915,4.930
'0:17.044',4.910,4.920
'0:17.048',4.900,4.930
'0:17.052',4.900,4.940
'0:17.056',4.895,4.930
'0:17.060',4.895,4.920
'0:17.064',4.890,4.915
'0:17.068',4.900,4.920
'0:17.072',4.915,4.930
'0:17.076',4.920,4.920
'0:17.080',4.915,4.915
'0:17.084',4.935,4.925
'0:17.088',4.955,4.915
'0:17.092',4.950,4.915
'0:17.096',4.950,4.915
'0:17.100',4.960,4.920
'0:17.104',4.990,4.945
'0:17.108',4.995,4.935
'0:17.112',4.990,4.935
'0:17.116',5.005,4.960
'0:17.120',5.015,4.960
'0:17.124',5.015,4.955
'0:17.128',4.975,4.945
'0:17.132',4.985,4.960
'0:17.136',5.000,4.975
'0:17.140',5.010,4.975
'0:17.144',5.000,4.985
'0:17.148',5.005,5.000
'0:17.152',5.040,4.995
'0:17.156',5.035,4.990
'0:17.160',4.970,4.965
'0:17.164',4.935,4.960
'0:17.168',4.945,4.970
'0:17.172',4.935,4.970
'0:17.176',4.915,4.955
'0:17.180',4.895,4.950
'0:17.184',4.890,4.955
'0:17.188',4.890,4.955
'0:17.192',4.865,4.940
'0:17.196',4.865,4.945
'0:17.200',4.865,4.955
'0:17.204',4.890,4.970
'0:17.208',4.880,4.950
'0:17.212',4.855,4.945
'0:17.216',4.860,4.955
'0:17.220',4.870,4.960
'0:17.224',4.855,4.960
'0:17.228',4.840,4.940
'0:17.232',4.835,4.945
'0:17.236',4.855,4.955
'0:17.240',4.860,4.955
'0:17.244',4.845,4.945
'0:17.248',4.830,4.950
'0:17.252',4.840,4.950
'0:17.256',4.845,4.925
'0:17.260',4.785,4.895
'0:17.264',4.735,4.880
'0:17.268',4.720,4.885
'0:17.272',4.685,4.935
'0:17.276',4.655,5.020
'0:17.280',4.755,5.160
'0:17.284',4.960,5.260
'0:17.288',5.110,5.360
'0:17.292',5.300,5.455
'0:17.296',5.640,5.560
'0:17.300',5.760,5.600
'0:17.304',6.180,5.600
'0:17.308',6.160,5.335
'0:17.312',5.770,5.045
'0:17.316',5.150,4.950
'0:17.320',4.755,4.925
'0:17.324',4.680,4.930
'0:17.328',4.730,4.920
'0:17.332',4.790,4.930
'0:17.336',4.805,4.935
'0:17.340',4.800,4.925
'0:17.344',4.795,4.910
'0:17.348',4.795,4.915
'0:17.352',4.810,4.920
'0:17.356',4.805,4.925
'0:17.360',4.785,4.895
'0:17.364',4.780,4.900
'0:17.368',4.785,4.915
'0:17.372',4.795,4.915
'0:17.376',4.785,4.905
'0:17.380',4.780,4.900
'0:17.384',4.795,4.910
'0:17.388',4.790,4.915
'0:17.392',4.785,4.905
'0:17.396',4.775,4.900
'0:17.400',4.765,4.905
'0:17.404',4.785,4.910
'0:17.408',4.775,4.910
'0:17.412',4.770,4.900
'0:17.416',4.775,4.915
'0:17.420',4.800,4.925
'0:17.424',4.785,4.915
'0:17.428',4.780,4.905
'0:17.432',4.780,4.915
'0:17.436',4.780,4.930
'0:17.440',4.785,4.910
'0:17.444',4.770,4.900
'0:17.448',4.770,4.895
'0:17.452',4.780,4.905
'0:17.456',4.785,4.910
'0:17.460',4.775,4.895
'0:17.464',4.755,4.895
'0:17.468',4.780,4.910
'0:17.472',4.775,4.905
'0:17.476',4.770,4.890
'0:17.480',4.770,4.890
'0:17.484',4.785,4.900
'0:17.488',4.790,4.890
'0:17.492',4.790,4.865
'0:17.496',4.780,4.865
'0:17.500',4.780,4.870
'0:17.504',4.785,4.870
'0:17.508',4.785,4.870
'0:17.512',4.775,4.850
'0:17.516',4.780,4.860
'0:17.520',4.790,4.870
'0:17.524',4.790,4.855
'0:17.528',4.770,4.845
'0:17.532',4.765,4.845
'0:17.536',4.770,4.835
'0:17.540',4.770,4.830
'0:17.544',4.760,4.815
'0:17.548',4.755,4.800
'0:17.552',4.760,4.815
'0:17.556',4.765,4.790
'0:17.560',4.750,4.770
'0:17.564',4.735,4.775
'0:17.568',4.740,4.785
'0:17.572',4.750,4.775
'0:17.576',4.750,4.760
'0:17.580',4.750,4.765
'0:17.584',4.750,4.775
'0:17.588',4.765,4.790
'0:17.592',4.770,4.790
'0:17.596',4.760,4.800
'0:17.600',4.755,4.810
'0:17.604',4.795,4.845
'0:17.608',4.810,4.860
'0:17.612',4.815,4.870
'0:17.616',4.835,4.900
'0:17.620',4.860,4.920
'0:17.624',4.875,4.930
'0:17.628',4.880,4.935
'0:17.632',4.895,4.950
'0:17.636',4.905,4.965
'0:17.640',4.910,4.960
'0:17.644',4.910,4.955
'0:17.648',4.905,4.965
'0:17.652',4.910,4.975
'0:17.656',4.920,4.980
'0:17.660',4.910,4.960
'0:17.664',4.900,4.965
'0:17.668',4.915,4.965
'0:17.672',4.920,4.970
'0:17.676',4.905,4.960
'0:17.680',4.900,4.955
'0:17.684',4.900,4.965
'0:17.688',4.915,4.960
'0:17.692',4.905,4.955
'0:17.696',4.895,4.945
'0:17.700',4.895,4.950
'0:17.704',4.915,4.970
'0:17.708',4.910,4.950
'0:17.712',4.900,4.945
'0:17.716',4.900,4.945
'0:17.720',4.910,4.960
'0:17.724',4.900,4.945
'0:17.728',4.880,4.925
'0:17.732',4.885,4.935
'0:17.736',4.900,4.935
'0:17.740',4.895,4.935
'0:17.744',4.880,4.925
'0:17.748',4.875,4.925
'0:17.752',4.880,4.940
'0:17.756',4.885,4.935
'0:17.760',4.865,4.925
'0:17.764',4.860,4.925
'0:17.768',4.860,4.920
'0:17.772',4.870,4.920
'0:17.776',4.855,4.920
'0:17.780',4.845,4.910
'0:17.784',4.850,4.925
'0:17.788',4.860,4.915
'0:17.792',4.850,4.910
'0:17.796',4.840,4.900
'0:17.800',4.835,4.905
'0:17.804',4.865,4.925
'0:17.808',4.865,4.895
'0:17.812',4.865,4.890
'0:17.816',4.890,4.900
'0:17.820',4.900,4.910
'0:17.824',4.895,4.905
'0:17.828',4.880,4.885
'0:17.832',4.895,4.905
'0:17.836',4.920,4.910
'0:17.840',4.935,4.915
'0:17.844',4.935,4.905
'0:17.848',4.940,4.920
'0:17.852',4.965,4.925
'0:17.856',4.970,4.940
'0:17.860',4.950,4.920
'0:17.864',4.935,4.930
'0:17.868',4.950,4.945
'0:17.872',4.955,4.950
'0:17.876',4.950,4.945
'0:17.880',4.945,4.955
'0:17.884',4.960,4.975
'0:17.888',4.995,4.980
'0:17.892',5.005,4.935
'0:17.896',4.950,4.930
'0:17.900',4.925,4.930
'0:17.904',4.910,4.940
'0:17.908',4.895,4.935
'0:17.912',4.865,4.920
'0:17.916',4.850,4.930
'0:17.920',4.855,4.940
'0:17.924',4.840,4.925
'0:17.928',4.835,4.920
'0:17.932',4.840,4.915
'0:17.936',4.850,4.920
'0:17.940',4.855,4.920
'0:17.944',4.845,4.910
'0:17.948',4.835,4.915
'0:17.952',4.845,4.930
'0:17.956',4.845,4.920
'0:17.960',4.825,4.910
'0:17.964',4.815,4.915
'0:17.968',4.840,4.920
'0:17.972',4.840,4.925
'0:17.976',4.825,4.925
'0:17.980',4.815,4.920
'0:17.984',4.830,4.920
'0:17.988',4.840,4.930
'0:17.992',4.825,4.920
'0:17.996',4.810,4.890
'0:18.000',4.805,4.885
'0:18.004',4.740,4.865
'0:18.008',4.715,4.840
'0:18.012',4.665,4.870
'0:18.016',4.640,5.005
'0:18.020',4.765,5.155
'0:18.024',4.980,5.270
'0:18.028',5.205,5.385
'0:18.032',5.555,5.540
'0:18.036',5.935,5.635
'0:18.040',6.120,5.530
'0:18.044',6.035,5.195
'0:18.048',5.530,4.915
'0:18.052',4.940,4.890
'0:18.056',4.665,4.895
'0:18.060',4.675,4.890
'0:18.064',4.760,4.890
'0:18.068',4.790,4.905
'0:18.072',4.785,4.900
'0:18.076',4.770,4.895
'0:18.080',4.765,4.880
'0:18.084',4.780,4.890
'0:18.088',4.775,4.895
'0:18.092',4.775,4.880
'0:18.096',4.760,4.870
'0:18.100',4.760,4.875
'0:18.104',4.780,4.900
'0:18.108',4.780,4.890
'0:18.112',4.770,4.875
'0:18.116',4.765,4.895
'0:18.120',4.780,4.905
'0:18.124',4.775,4.895
'0:18.128',4.765,4.880
'0:18.132',4.755,4.895
'0:18.136',4.765,4.910
'0:18.140',4.765,4.910
'0:18.144',4.775,4.900
'0:18.148',4.765,4.905
'0:18.152',4.775,4.910
'0:18.156',4.785,4.900
'0:18.160',4.770,4.890
'0:18.164',4.765,4.890
'0:18.168',4.775,4.900
'0:18.172',4.785,4.905
'0:18.176',4.775,4.900
'0:18.180',4.770,4.895
'0:18.184',4.770,4.905
'0:18.188',4.780,4.900
'0:18.192',4.765,4.890
'0:18.196',4.760,4.895
'0:18.200',4.760,4.905
'0:18.204',4.775,4.900
'0:18.208',4.760,4.885
'0:18.212',4.745,4.885
'0:18.216',4.755,4.885
'0:18.220',4.765,4.890
'0:18.224',4.765,4.880
'0:18.228',4.760,4.865
'0:18.232',4.760,4.870
'0:18.236',4.760,4.875
'0:18.240',4.770,4.855
'0:18.244',4.760,4.845
'0:18.248',4.770,4.840
'0:18.252',4.775,4.840
'0:18.256',4.770,4.835
'0:18.260',4.770,4.810
'0:18.264',4.750,4.815
'0:18.268',4.760,4.820
'0:18.272',4.770,4.810
'0:18.276',4.755,4.795
'0:18.280',4.745,4.780
'0:18.284',4.750,4.790
'0:18.288',4.765,4.800
'0:18.292',4.750,4.785
'0:18.296',4.740,4.780
'0:18.300',4.745,4.795
'0:18.304',4.765,4.805
'0:18.308',4.770,4.810
'0:18.312',4.765,4.810
'0:18.316',4.780,4.835
'0:18.320',4.805,4.845
'0:18.324',4.815,4.850
'0:18.328',4.810,4.845
'0:18.332',4.815,4.870
'0:18.336',4.830,4.885
'0:18.340',4.850,4.890
'0:18.344',4.840,4.890
'0:18.348',4.850,4.910
'0:18.352',4.865,4.925
'0:18.356',4.880,4.930
'0:18.360',4.875,4.925
'0:18.364',4.870,4.920
'0:18.368',4.875,4.945
'0:18.372',4.885,4.945
'0:18.376',4.880,4.940
'0:18.380',4.880,4.935
'0:18.384',4.895,4.945
'0:18.388',4.895,4.950
'0:18.392',4.900,4.940
'0:18.396',4.890,4.945
'0:18.400',4.880,4.940
'0:18.404',4.900,4.940
'0:18.408',4.895,4.945
'0:18.412',4.890,4.930
'0:18.416',4.890,4.950
'0:18.420',4.910,4.950
'0:18.424',4.900,4.935
'0:18.428',4.890,4.925
'0:18.432',4.880,4.935
'0:18.436',4.885,4.945
'0:18.440',4.885,4.945
'0:18.444',4.875,4.925
'0:18.448',4.865,4.920
'0:18.452',4.870,4.935
'0:18.456',4.870,4.940
'0:18.460',4.855,4.915
'0:18.464',4.860,4.915
'0:18.468',4.870,4.925
'0:18.472',4.865,4.925
'0:18.476',4.865,4.910
'0:18.480',4.845,4.910
'0:18.484',4.850,4.920
'0:18.488',4.860,4.920
'0:18.492',4.855,4.900
'0:18.496',4.840,4.895
'0:18.500',4.830,4.905
'0:18.504',4.840,4.900
'0:18.508',4.850,4.900
'0:18.512',4.835,4.880
'0:18.516',4.830,4.890
'0:18.520',4.835,4.885
'0:18.524',4.840,4.890
'0:18.528',4.825,4.880
'0:18.532',4.825,4.880
'0:18.536',4.850,4.890
'0:18.540',4.870,4.870
'0:18.544',4.860,4.855
'0:18.548',4.865,4.875
'0:18.552',4.890,4.895
'0:18.556',4.895,4.890
'0:18.560',4.895,4.890
'0:18.564',4.895,4.875
'0:18.568',4.910,4.900
'0:18.572',4.905,4.900
'0:18.576',4.905,4.895
'0:18.580',4.915,4.900
'0:18.584',4.945,4.925
'0:18.588',4.965,4.935
'0:18.592',4.955,4.915
'0:18.596',4.935,4.910
'0:18.600',4.920,4.915
'0:18.604',4.925,4.935
'0:18.608',4.935,4.935
'0:18.612',4.920,4.925
'0:18.616',4.930,4.955
'0:18.620',4.965,4.970
'0:18.624',4.985,4.950
'0:18.628',4.935,4.930
'0:18.632',4.885,4.930
'0:18.636',4.885,4.930
'0:18.640',4.880,4.920
'0:18.644',4.840,4.905
'0:18.648',4.835,4.905
'0:18.652',4.820,4.920
'0:18.656',4.810,4.915
'0:18.660',4.800,4.900
'0:18.664',4.800,4.910
'0:18.668',4.820,4.910
'0:18.672',4.805,4.915
'0:18.676',4.800,4.890
'0:18.680',4.780,4.885
'0:18.684',4.780,4.900
'0:18.688',4.780,4.895
'0:18.692',4.765,4.885
'0:18.696',4.765,4.880
'0:18.700',4.760,4.885
'0:18.704',4.790,4.880
'0:18.708',4.775,4.880
'0:18.712',4.760,4.880
'0:18.716',4.775,4.885
'0:18.720',4.780,4.885
'0:18.724',4.755,4.860
'0:18.728',4.735,4.815
'0:18.732',4.695,4.820
'0:18.736',4.680,4.805
'0:18.740',4.660,4.765
'0:18.744',4.595,4.750
'0:18.748',4.535,4.845
'0:18.752',4.590,4.965
'0:18.756',4.745,5.080
'0:18.760',4.940,5.160
'0:18.764',5.195,5.265
'0:18.768',5.575,5.395
'0:18.772',5.870,5.445
'0:18.776',5.960,5.240
'0:18.780',5.745,4.885
'0:18.784',5.195,4.740
'0:18.788',4.705,4.770
'0:18.792',4.535,4.810
'0:18.796',4.595,4.815
'0:18.800',4.630,4.825
'0:18.804',4.705,4.835
'0:18.808',4.705,4.830
'0:18.812',4.695,4.820
'0:18.816',4.695,4.845
'0:18.820',4.705,4.850
'0:18.824',4.700,4.845
'0:18.828',4.685,4.830
'0:18.832',4.680,4.840
'0:18.836',4.690,4.835
'0:18.840',4.680,4.845
'0:18.844',4.665,4.835
'0:18.848',4.665,4.825
'0:18.852',4.670,4.835
'0:18.856',4.665,4.820
'0:18.860',4.655,4.815
'0:18.864',4.655,4.805
'0:18.868',4.665,4.820
'0:18.872',4.660,4.820
'0:18.876',4.655,4.805
'0:18.880',4.650,4.820
'0:18.884',4.665,4.830
'0:18.888',4.675,4.835
'0:18.892',4.670,4.830
'0:18.896',4.640,4.820
'0:18.900',4.635,4.815
'0:18.904',4.650,4.835
'0:18.908',4.655,4.835
'0:18.912',4.655,4.825
'0:18.916',4.650,4.825
'0:18.920',4.645,4.815
'0:18.924',4.660,4.805
'0:18.928',4.630,4.775
'0:18.932',4.630,4.805
'0:18.936',4.640,4.810
'0:18.940',4.630,4.815
'0:18.944',4.645,4.800
'0:18.948',4.630,4.795
'0:18.952',4.645,4.805
'0:18.956',4.630,4.805
'0:18.960',4.625,4.790
'0:18.964',4.635,4.805
'0:18.968',4.640,4.810
'0:18.972',4.655,4.795
'0:18.976',4.645,4.775
'0:18.980',4.630,4.770
'0:18.984',4.630,4.785
'0:18.988',4.630,4.795
'0:18.992',4.620,4.760
'0:18.996',4.615,4.740
'0:19.000',4.610,4.730
'0:19.004',4.610,4.730
'0:19.008',4.605,4.720
'0:19.012',4.590,4.685
'0:19.016',4.575,4.710
'0:19.020',4.590,4.715
'0:19.024',4.605,4.700
'0:19.028',4.595,4.680
'0:19.032',4.570,4.695
'0:19.036',4.585,4.705
'0:19.040',4.600,4.715
'0:19.044',4.600,4.700
'0:19.048',4.590,4.700
'0:19.052',4.605,4.720
'0:19.056',4.600,4.735
'0:19.060',4.610,4.735
'0:19.064',4.630,4.770
'0:19.068',4.655,4.790
'0:19.072',4.680,4.800
'0:19.076',4.685,4.805
'0:19.080',4.685,4.810
'0:19.084',4.710,4.825
'0:19.088',4.720,4.835
'0:19.092',4.725,4.825
'0:19.096',4.725,4.830
'0:19.100',4.720,4.845
'0:19.104',4.720,4.850
'0:19.108',4.730,4.855
'0:19.112',4.730,4.830
'0:19.116',4.735,4.855
'0:19.120',4.765,4.855
'0:19.124',4.760,4.860
'0:19.128',4.770,4.845
'0:19.132',4.770,4.860
'0:19.136',4.775,4.870
'0:19.140',4.760,4.855
'0:19.144',4.735,4.845
'0:19.148',4.720,4.860
'0:19.152',4.750,4.875
'0:19.156',4.775,4.850
'0:19.160',4.760,4.850
'0:19.164',4.735,4.850
'0:19.168',4.755,4.855
'0:19.172',4.755,4.870
'0:19.176',4.745,4.840
'0:19.180',4.740,4.825
'0:19.184',4.745,4.840
'0:19.188',4.755,4.840
'0:19.192',4.735,4.825
'0:19.196',4.720,4.825
'0:19.200',4.715,4.830
'0:19.204',4.730,4.860
'0:19.208',4.735,4.865
'0:19.212',4.750,4.835
'0:19.216',4.755,4.845
'0:19.220',4.755,4.840
'0:19.224',4.725,4.820
'0:19.228',4.690,4.815
'0:19.232',4.685,4.815
'0:19.236',4.700,4.820
'0:19.240',4.705,4.825
'0:19.244',4.705,4.815
'0:19.248',4.715,4.815
'0:19.252',4.700,4.830
'0:19.256',4.685,4.820
'0:19.260',4.685,4.805
'0:19.264',4.695,4.815
'0:19.268',4.715,4.820
'0:19.272',4.720,4.820
'0:19.276',4.705,4.795
'0:19.280',4.700,4.800
'0:19.284',4.700,4.825
'0:19.288',4.720,4.820
'0:19.292',4.715,4.825
'0:19.296',4.720,4.800
'0:19.300',4.725,4.785
'0:19.304',4.745,4.810
'0:19.308',4.750,4.800
'0:19.312',4.755,4.790
'0:19.316',4.740,4.785
'0:19.320',4.730,4.795
'0:19.324',4.745,4.805
'0:19.328',4.755,4.815
'0:19.332',4.785,4.820
'0:19.336',4.815,4.835
'0:19.340',4.825,4.825
'0:19.344',4.800,4.815
'0:19.348',4.785,4.825
'0:19.352',4.815,4.830
'0:19.356',4.835,4.850
'0:19.360',4.815,4.835
'0:19.364',4.790,4.835
'0:19.368',4.805,4.850
'0:19.372',4.835,4.855
'0:19.376',4.845,4.855
'0:19.380',4.830,4.855
'0:19.384',4.850,4.885
'0:19.388',4.875,4.870
'0:19.392',4.855,4.835
'0:19.396',4.780,4.835
'0:19.400',4.760,4.840
'0:19.404',4.730,4.860
'0:19.408',4.720,4.835
'0:19.412',4.720,4.820
'0:19.416',4.710,4.835
'0:19.420',4.705,4.835
'0:19.424',4.710,4.830
'0:19.428',4.690,4.830
'0:19.432',4.690,4.820
'0:19.436',4.695,4.815
'0:19.440',4.700,4.815
'0:19.444',4.695,4.830
'0:19.448',4.695,4.840
'0:19.452',4.700,4.835
'0:19.456',4.700,4.835
'0:19.460',4.690,4.820
'0:19.464',4.675,4.810
'0:19.468',4.680,4.835
'0:19.472',4.685,4.845
'0:19.476',4.675,4.820
'0:19.480',4.665,4.795
'0:19.484',4.640,4.780
'0:19.488',4.600,4.770
'0:19.492',4.565,4.740
'0:19.496',4.525,4.740
'0:19.500',4.510,4.750
'0:19.504',4.555,4.955
'0:19.508',4.690,5.065
'0:19.512',4.870,5.105
'0:19.516',5.050,5.170
'0:19.520',5.280,5.250
'0:19.524',5.575,5.320
'0:19.528',5.825,5.405
'0:19.532',5.975,5.500
'0:19.536',6.095,5.440
'0:19.540',6.025,5.105
'0:19.544',5.620,4.750
'0:19.548',5.000,4.655
'0:19.552',4.605,4.725
'0:19.556',4.515,4.765
'0:19.560',4.555,4.770
'0:19.564',4.615,4.790
'0:19.568',4.635,4.800
'0:19.572',4.645,4.815
'0:19.576',4.650,4.805
'0:19.580',4.630,4.795
'0:19.584',4.640,4.820
'0:19.588',4.635,4.815
'0:19.592',4.630,4.815
'0:19.596',4.635,4.815
'0:19.600',4.635,4.815
'0:19.604',4.640,4.835
'0:19.608',4.615,4.820
'0:19.612',4.610,4.815
'0:19.616',4.630,4.830
'0:19.620',4.635,4.815
'0:19.624',4.625,4.815
'0:19.628',4.605,4.795
'0:19.632',4.605,4.820
'0:19.636',4.620,4.830
'0:19.640',4.635,4.835
'0:19.644',4.620,4.820
'0:19.648',4.620,4.820
'0:19.652',4.620,4.830
'0:19.656',4.630,4.840
'0:19.660',4.615,4.820
'0:19.664',4.610,4.835
'0:19.668',4.635,4.825
'0:19.672',4.630,4.830
'0:19.676',4.615,4.815
'0:19.680',4.615,4.815
'0:19.684',4.605,4.825
'0:19.688',4.625,4.830
'0:19.692',4.610,4.820
'0:19.696',4.600,4.795
'0:19.700',4.595,4.795
'0:19.704',4.615,4.825
'0:19.708',4.620,4.820
'0:19.712',4.620,4.800
'0:19.716',4.615,4.820
'0:19.720',4.620,4.815
'0:19.724',4.615,4.805
'0:19.728',4.605,4.785
'0:19.732',4.600,4.785
'0:19.736',4.610,4.790
'0:19.740',4.605,4.780
'0:19.744',4.595,4.760
'0:19.748',4.585,4.755
'0:19.752',4.595,4.755
'0:19.756',4.595,4.730
'0:19.760',4.580,4.705
'0:19.764',4.565,4.705
'0:19.768',4.565,4.705
'0:19.772',4.565,4.705
'0:19.776',4.555,4.690
'0:19.780',4.550,4.680
'0:19.784',4.560,4.690
'0:19.788',4.560,4.705
'0:19.792',4.565,4.700
'0:19.796',4.560,4.705
'0:19.800',4.565,4.715
'0:19.804',4.610,4.765
'0:19.808',4.635,4.780
'0:19.812',4.650,4.795
'0:19.816',4.675,4.825
'0:19.820',4.715,4.845
'0:19.824',4.735,4.845
'0:19.828',4.740,4.835
'0:19.832',4.745,4.870
'0:19.836',4.765,4.890
'0:19.840',4.785,4.890
'0:19.844',4.780,4.880
'0:19.848',4.775,4.885
'0:19.852',4.790,4.895
'0:19.856',4.785,4.895
'0:19.860',4.795,4.890
'0:19.864',4.790,4.890
'0:19.868',4.800,4.895
'0:19.872',4.805,4.900
'0:19.876',4.795,4.895
'0:19.880',4.790,4.885
'0:19.884',4.800,4.900
'0:19.888',4.810,4.915
'0:19.892',4.810,4.900
'0:19.896',4.795,4.890
'0:19.900',4.800,4.895
'0:19.904',4.815,4.900
'0:19.908',4.815,4.890
'0:19.912',4.805,4.895
'0:19.916',4.790,4.880
'0:19.920',4.790,4.885
'0:19.924',4.790,4.880
'0:19.928',4.775,4.860
'0:19.932',4.775,4.875
'0:19.936',4.780,4.880
'0:19.940',4.800,4.870
'0:19.944',4.775,4.855
'0:19.948',4.770,4.860
'0:19.952',4.780,4.880
'0:19.956',4.785,4.875
'0:19.960',4.785,4.855
'0:19.964',4.765,4.855
'0:19.968',4.775,4.860
'0:19.972',4.780,4.860
'0:19.976',4.770,4.855
'0:19.980',4.750,4.850
'0:19.984',4.760,4.855
